#####################################################################
# Alchemist log file - simulation started at: 2024-05-07T00:09+0000 #
#####################################################################
#
# seed = 6.0, nodeCount = 200, surrogateFrequency = 20, scenario = offloaded
#
# The columns have the following meaning: 
# time potential[sum] 
0.0 0.0
5.779635807532712E-4 0.0
1.0005779635807537 0.0
2.0005779635807546 551.5317110262947
3.000577963580751 3994.9584368908245
4.0005779635807475 3994.9584368908245
5.000577963580744 13807.179477883263
6.00057796358074 29662.00551019782
7.000577963580737 39739.06252298861
8.000577963580733 119862.44659710696
9.000577963580747 234745.83595073724
10.000577963580762 470791.0030184139
11.000577963580776 656644.8450106237
12.00057796358079 853117.1210761572
13.000577963580804 1054936.2298957934
14.000577963580819 1149251.7513087986
15.000577963580833 1199700.4059392917
16.000577963580845 1216081.3134973561
17.00057796358086 1224383.3776844384
18.000577963580874 1224108.0196198293
19.000577963580888 1244943.4323115114
20.000577963580902 1244933.2270889757
21.000577963580916 1244830.9169936045
22.00057796358093 1244830.1391695698
23.000577963580945 1244839.003819111
24.00057796358096 1244851.6805978753
25.000577963580973 1244864.2726188118
26.000577963580987 1244881.3303767983
27.000577963581 1244889.7921196362
28.000577963581016 1244912.3452961077
29.00057796358103 1244919.4211619352
30.000577963581044 1244938.9862385327
31.00057796358106 1244946.394934722
32.00057796358107 1244964.534153063
33.000577963581016 1244972.0777989344
34.00057796358096 1244989.9454518205
35.0005779635809 1244998.8461346356
36.000577963580845 1245016.0308971286
37.00057796358079 1245018.9755879208
38.00057796358073 1245041.1789356798
39.000577963580675 1245042.84104215
40.00057796358062 1245054.1205672575
41.00057796358056 1245058.1034273158
42.000577963580504 1245079.5830628006
43.00057796358045 1245083.600317688
44.00057796358039 1245097.2487898753
45.000577963580334 1245101.408847712
46.00057796358028 1245125.2653460498
47.00057796358022 1245133.2463320163
48.00057796358016 1245153.4418466075
49.000577963580106 1245160.6854423825
50.00057796358005 1245180.782546101
51.00057796357999 1245187.1985604418
52.000577963579936 1245204.0515697284
53.00057796357988 1245221.0037373577
54.00057796357982 1244628.125993726
55.000577963579765 1244645.839461405
56.00057796357971 1243451.703476503
57.00057796357965 1242162.3811666223
58.000577963579595 1242163.9243828072
59.00057796357954 1242154.8443941204
60.00057796357948 1242059.129544038
61.000577963579424 1242049.2542000802
62.00057796357937 1242050.6624229462
63.00057796357931 1242048.9882208994
64.00057796357926 1242055.1473110793
65.0005779635792 1242049.4912787424
66.00057796357915 1242056.7351246232
67.00057796357909 1242054.885371054
68.00057796357903 1242067.4694277549
69.00057796357898 1242076.282494135
70.00057796357892 1242101.70212651
71.00057796357886 1242122.5535692112
72.0005779635788 1242108.2698266401
73.00057796357875 1242071.2237019828
74.00057796357869 1242092.6681804918
75.00057796357864 1242091.5047497444
76.00057796357858 1242064.3875320046
77.00057796357852 1242071.1993943101
78.00057796357846 1242033.6378483344
79.00057796357841 1241972.7962659593
80.00057796357835 1241987.4995475493
81.0005779635783 1241972.148108259
82.00057796357824 1242010.7425241165
83.00057796357818 1242028.9544833498
84.00057796357812 1242059.4302866312
85.00057796357807 1242104.2383948574
86.00057796357801 1242110.2542298788
87.00057796357795 1242130.0731773023
88.0005779635779 1242136.0025204215
89.00057796357784 1242141.4003951715
90.00057796357778 1242137.6062913015
91.00057796357773 1242094.7325371483
92.00057796357767 1242111.5937244578
93.00057796357761 1242115.5939139125
94.00057796357756 1242126.5604334942
95.0005779635775 1242123.5078801503
96.00057796357744 1242147.5691595892
97.00057796357738 1242135.6620105233
98.00057796357733 1242158.7403896092
99.00057796357727 1242140.372930216
100.00057796357721 1242177.6114399743
101.00057796357716 1242178.3706772577
102.0005779635771 1242198.8829691282
103.00057796357704 1242191.3390654994
104.00057796357699 1242219.7175146416
105.00057796357693 1242210.6653610028
106.00057796357687 1242235.412699562
107.00057796357682 1242228.0396900768
108.00057796357676 1242246.2306505865
109.0005779635767 1242248.2744262798
110.00057796357665 1242270.922351309
111.00057796357659 1242267.4299225993
112.00057796357653 1242314.3843274675
113.00057796357648 1242338.4862630048
114.00057796357642 1242396.460279221
115.00057796357636 1242454.0565704948
116.0005779635763 1242565.4206068087
117.00057796357625 1242664.3535852763
118.00057796357619 1242790.6106614366
119.00057796357613 1242936.8455328033
120.00057796357608 1243143.4181064474
121.00057796357602 1243331.8512851358
122.00057796357596 1243582.668943866
123.0005779635759 1243827.5825800975
124.00057796357585 1244087.853886124
125.0005779635758 1244353.3048898508
126.00057796357574 1244670.356888545
127.00057796357568 1244962.053668234
128.00057796357564 1245269.265184371
129.00057796357586 1245565.3228529957
130.0005779635761 1245893.1018690479
131.00057796357632 1246200.1140291623
132.00057796357655 1246526.9484238743
133.00057796357677 1246831.5233960375
134.000577963577 1247138.7262637934
135.00057796357723 1247433.0695752513
136.00057796357746 1247701.2008770974
137.00057796357768 1247942.6122457376
138.0005779635779 1248203.8002143912
139.00057796357814 1248433.2948352557
140.00057796357837 1248647.020685496
141.0005779635786 1248840.0400082176
142.00057796357882 1248996.4958148706
143.00057796357905 1249139.1750437124
144.00057796357927 1249199.112470034
145.0005779635795 1249232.4137041154
146.00057796357973 1249191.699921833
147.00057796357996 1249077.9074630348
148.00057796358018 1248884.5475749967
149.0005779635804 1248685.6429280648
150.00057796358064 1248365.3720898207
151.00057796358087 1248070.6032593348
152.0005779635811 1247677.1180879583
153.00057796358132 1247326.9820349095
154.00057796358155 1246907.1717393277
155.00057796358178 1246528.6565226666
156.000577963582 1246118.803808154
157.00057796358223 1245730.610515203
158.00057796358246 1245337.2820126794
159.00057796358269 1244996.2614767002
160.0005779635829 1244600.7425582272
161.00057796358314 1244231.3065445013
162.00057796358337 1243891.8917213737
163.0005779635836 1243588.4808619255
164.00057796358382 1243293.061572904
165.00057796358405 1243117.7545552994
166.00057796358428 1242937.0294694
167.0005779635845 1242762.86625941
168.00057796358473 1242709.9038935627
169.00057796358496 1242597.1769966453
170.0005779635852 1242586.123158293
171.0005779635854 1242609.6894199718
172.00057796358564 1242588.3401621722
173.00057796358587 1242594.7581231336
174.0005779635861 1242642.9963560596
175.00057796358632 1242663.3773878748
176.00057796358655 1242691.5916182077
177.00057796358678 1242758.2513919321
178.000577963587 1242838.847594798
179.00057796358723 1242929.639650265
180.00057796358746 1243038.2485486122
181.0005779635877 1243153.93466195
182.00057796358792 1243302.2646109248
183.00057796358814 1243451.63163401
184.00057796358837 1243656.0705370102
185.0005779635886 1243851.1616473852
186.00057796358882 1244081.5486004758
187.00057796358905 1244315.9802077156
188.00057796358928 1244603.0782677752
189.0005779635895 1244884.495065205
190.00057796358973 1245210.6950888054
191.00057796358996 1245524.2425558825
192.0005779635902 1245869.5658125505
193.00057796359042 1246216.8781579076
194.00057796359064 1246615.555697604
195.00057796359087 1246996.8473858438
196.0005779635911 1247416.8586983792
197.00057796359133 1247819.3911412822
198.00057796359155 1247179.4349053141
199.00057796359178 1247583.0172856513
200.000577963592 1248021.067888579
201.00057796359224 1248415.488914937
202.00057796359246 1248828.8609360536
203.0005779635927 1249266.3219066092
204.00057796359292 1249593.8040775415
205.00057796359314 1249890.4220040138
206.00057796359337 1250210.532492156
207.0005779635936 1250428.4214034954
208.00057796359383 1250553.8748429236
209.00057796359405 1250570.8934828846
210.00057796359428 1250544.0717869292
211.0005779635945 1250345.2497250007
212.00057796359474 1250101.5837684667
213.00057796359496 1249790.7012075065
214.0005779635952 1249323.5253946295
215.00057796359542 1248935.973113304
216.00057796359565 1248439.3777001433
217.00057796359587 1248000.0975985704
218.0005779635961 1247567.3390865538
219.00057796359633 1247179.6886719954
220.00057796359656 1246826.1613781792
221.00057796359678 1246453.3325636624
222.000577963597 1246138.1521952227
223.00057796359724 1245803.5728620943
224.00057796359746 1245440.428026464
225.0005779635977 1245097.442097114
226.00057796359792 1244743.8665529855
227.00057796359815 1244373.5747347877
228.00057796359837 1244018.0787764092
229.0005779635986 1243698.0390526413
230.00057796359883 1244447.2532806434
231.00057796359906 1244180.8971120103
232.00057796359928 1244009.9783418414
233.0005779635995 1243857.5874211101
234.00057796359974 1243822.9062170486
235.00057796359997 1243826.7833351726
236.0005779636002 1243933.4513022795
237.00057796360042 1244036.607227522
238.00057796360065 1244211.7463138858
239.00057796360088 1244364.3090620884
240.0005779636011 1244616.493747806
241.00057796360133 1244810.0395892528
242.00057796360156 1245120.2285526562
243.00057796360178 1245338.2216418248
244.000577963602 1245641.9964002364
245.00057796360224 1245897.7533891525
246.00057796360247 1246216.6575903946
247.0005779636027 1246488.592377007
248.00057796360292 1246779.0181512926
249.00057796360315 1247026.5164423794
250.00057796360338 1247323.6095151142
251.0005779636036 1247571.117640293
252.00057796360383 1247875.0340095777
253.00057796360406 1248132.4460999877
254.0005779636043 1248427.163763529
255.0005779636045 1248676.3809116045
256.0005779636047 1248972.9669006343
257.00057796360494 1249221.1455877246
258.00057796360517 1249512.4500214744
259.0005779636054 1249752.9727515082
260.0005779636056 1249999.4209534724
261.00057796360585 1250195.3146454834
262.0005779636061 1250404.435326555
263.0005779636063 1250574.9408416084
264.00057796360653 1250703.4302935367
265.00057796360676 1250790.5168302753
266.000577963607 1250813.6166871747
267.0005779636072 1250786.1437157542
268.00057796360744 1250708.4402711065
269.00057796360767 1250552.3414624946
270.0005779636079 1250324.90730241
271.0005779636081 1250059.6089592727
272.00057796360835 1249693.8896459646
273.0005779636086 1249343.0787716978
274.0005779636088 1248917.3732102246
275.00057796360903 1248533.2530399873
276.00057796360926 1248081.7057845003
277.0005779636095 1247673.9304482737
278.0005779636097 1247234.3567369438
279.00057796360994 1246813.5127927072
280.00057796361017 1246393.542712316
281.0005779636104 1246009.9596642645
282.0005779636106 1245629.436645081
283.00057796361085 1245286.9138411237
284.0005779636111 1244974.0735660319
285.0005779636113 1244714.0601146456
286.00057796361153 1244494.6793301634
287.00057796361176 1244334.896418832
288.000577963612 1244234.2227705284
289.0005779636122 1244160.7668246126
290.00057796361244 1244139.1023992298
291.00057796361267 1244130.263258694
292.0005779636129 1244168.1259460072
293.0005779636131 1244205.0881909882
294.00057796361335 1244256.9436297147
295.0005779636136 1244314.508027672
296.0005779636138 1244389.0035633098
297.00057796361403 1244456.6904211084
298.00057796361426 1244529.4286982673
299.0005779636145 1244611.5128110356
300.0005779636147 1244708.6497334454
301.00057796361494 1244803.7116650848
302.00057796361517 1244924.78263181
303.0005779636154 1245059.740951921
304.0005779636156 1245229.8475578506
305.00057796361585 1245388.6253201603
306.0005779636161 1245611.98368168
307.0005779636163 1245807.359919074
308.00057796361654 1246058.747290928
309.00057796361676 1246304.2468395275
310.000577963617 1246608.57597334
311.0005779636172 1246877.9213692727
312.00057796361745 1247246.6569815783
313.0005779636177 1247568.850602742
314.0005779636179 1247946.5788546854
315.0005779636181 1248285.2669652484
316.00057796361835 1248700.3033377137
317.0005779636186 1249067.4011545072
318.0005779636188 1249450.6312142953
319.00057796361904 1249821.3669103119
320.00057796361926 1250206.747641475
321.0005779636195 1250552.5397198845
322.0005779636197 1250883.6928039682
323.00057796361995 1251172.9558181737
324.0005779636202 1251448.0879994675
325.0005779636204 1251647.4865604178
326.00057796362063 1251848.9632163811
327.00057796362086 1251968.182391607
328.0005779636211 1251943.6110368608
329.0005779636213 1251844.2371272028
330.00057796362154 1251666.728568675
331.00057796362177 1251353.428825447
332.000577963622 1250949.4460042166
333.0005779636222 1250602.8861081158
334.00057796362245 1250171.4059602015
335.0005779636227 1249736.280269522
336.0005779636229 1249322.1406227786
337.00057796362313 1248936.2993461655
338.00057796362336 1248610.0436361094
339.0005779636236 1248295.547616629
340.0005779636238 1247955.465121886
341.00057796362404 1247612.0955172644
342.00057796362427 1247266.7691337143
343.0005779636245 1246926.4828679776
344.0005779636247 1246602.7414100214
345.00057796362495 1246309.8421297246
346.0005779636252 1245990.4170459604
347.0005779636254 1245683.4725570204
348.00057796362563 1245402.9653339682
349.00057796362586 1245106.1473016646
350.0005779636261 1244835.8703023775
351.0005779636263 1244608.6841316763
352.00057796362654 1244423.3759717497
353.00057796362677 1244305.2609351266
354.000577963627 1244231.1445252793
355.0005779636272 1244213.7324223868
356.00057796362745 1244266.477600207
357.0005779636277 1244339.4671962687
358.0005779636279 1244453.3994356736
359.00057796362813 1244574.328884034
360.00057796362836 1244752.357038412
361.0005779636286 1244908.4633526835
362.0005779636288 1245125.806427742
363.00057796362904 1245325.948330029
364.00057796362927 1245549.038769959
365.0005779636295 1245770.6173239655
366.0005779636297 1246463.5900298285
367.00057796362995 1246698.2810892044
368.0005779636302 1247383.1791259386
369.0005779636304 1247705.7193459223
370.00057796363063 1247987.5287049587
371.00057796363086 1248498.6536210063
372.0005779636311 1248814.4292072498
373.0005779636313 1249109.5910995144
374.00057796363154 1249413.710292924
375.00057796363177 1249557.6657930675
376.000577963632 1249824.9706669338
377.0005779636322 1249597.1876158286
378.00057796363245 1248972.7316776898
379.0005779636327 1248834.8299108264
380.0005779636329 1248895.5071652534
381.00057796363313 1249110.1832549083
382.00057796363336 1249312.843703199
383.0005779636336 1249544.7173278995
384.0005779636338 1249676.271861612
385.00057796363404 1249831.9673888818
386.00057796363427 1249975.755935521
387.0005779636345 1250045.3210519066
388.0005779636347 1249974.4347073901
389.00057796363495 1249877.9342996909
390.0005779636352 1249690.5724859922
391.0005779636354 1249509.5047449325
392.00057796363564 1249205.8326488668
393.00057796363586 1248964.4279815257
394.0005779636361 1248552.6351831974
395.0005779636363 1248233.137184849
396.00057796363654 1247794.1642671188
397.0005779636368 1247436.9543621144
398.000577963637 1246997.755379536
399.0005779636372 1246628.2632096687
400.00057796363745 1246188.3943514638
401.0005779636377 1245822.0682957412
402.0005779636379 1245385.2479096062
403.00057796363814 1245024.3755145608
404.00057796363836 1244597.2291455655
405.0005779636386 1244251.1142047106
406.0005779636388 1243847.0971621003
407.00057796363905 1243516.545604119
408.0005779636393 1243154.1242870798
409.0005779636395 1242888.1541358714
410.0005779636397 1242578.8155148947
411.00057796363996 1242401.2294934657
412.0005779636402 1242214.8138820592
413.0005779636404 1242105.2113507998
414.00057796364064 1242027.2485712175
415.00057796364086 1242013.3505089798
416.0005779636411 1242020.5805647764
417.0005779636413 1242084.744764575
418.00057796364155 1242172.4954702172
419.0005779636418 1242293.2581942044
420.000577963642 1242433.6194336638
421.00057796364223 1242618.4266585766
422.00057796364246 1242799.3531764913
423.0005779636427 1243028.6577004918
424.0005779636429 1243302.2004214185
425.00057796364314 1243583.4840435379
426.00057796364337 1243857.5068854513
427.0005779636436 1244171.165858452
428.0005779636438 1244517.377368526
429.00057796364405 1244864.8738804953
430.0005779636443 1245192.7881317115
431.0005779636445 1245539.755560551
432.00057796364473 1245897.932365163
433.00057796364496 1246244.9001510448
434.0005779636452 1246595.8291529233
435.0005779636454 1246953.863938914
436.00057796364564 1247268.7468553751
437.00057796364587 1247584.5580122448
438.0005779636461 1247852.4789322075
439.0005779636463 1248132.5147452229
440.00057796364655 1248377.22158506
441.0005779636468 1248567.935466039
442.000577963647 1248741.334179801
443.00057796364723 1248847.9047593554
444.00057796364746 1248908.5917843345
445.0005779636477 1248904.3932804875
446.0005779636479 1248874.4425463278
447.00057796364814 1248768.9472445943
448.00057796364837 1248619.2812470624
449.0005779636486 1248454.7405181571
450.0005779636488 1248270.289482182
451.00057796364905 1248030.2558290437
452.0005779636493 1247718.2892816642
453.0005779636495 1247421.7159415511
454.00057796364973 1247059.0229342766
455.00057796364996 1246743.1256949606
456.0005779636502 1246405.8487124848
457.0005779636504 1246097.1108111856
458.00057796365064 1245776.6870237812
459.00057796365087 1245461.9788617059
460.0005779636511 1245143.4871909078
461.0005779636513 1244834.8547483212
462.00057796365155 1244490.8701172017
463.0005779636518 1244188.7599286486
464.000577963652 1243848.4012779386
465.00057796365223 1243521.4431968876
466.00057796365246 1243220.9958868204
467.0005779636527 1242903.884487972
468.0005779636529 1242574.1838289257
469.00057796365314 1242324.6833113213
470.00057796365337 1242058.177269775
471.0005779636536 1241881.6273337845
472.0005779636538 1241726.1545629152
473.00057796365405 1241636.4325801632
474.0005779636543 1241561.1624882747
475.0005779636545 1241542.700862302
476.00057796365473 1241532.9963839448
477.00057796365496 1241538.727396072
478.0005779636552 1241545.77097967
479.0005779636554 1241575.6725509008
480.00057796365564 1241598.2106791474
481.00057796365587 1241635.1439179361
482.0005779636561 1241657.3202364447
483.0005779636563 1241707.7870044163
484.00057796365655 1241740.2494767865
485.0005779636568 1241786.0325949132
486.000577963657 1241825.5976896768
487.00057796365724 1241879.2227936136
488.00057796365746 1241904.431083151
489.0005779636577 1241959.7246139112
490.0005779636579 1241988.1512840784
491.00057796365815 1242051.2000797477
492.0005779636584 1242098.5293135843
493.0005779636586 1242268.9700473484
494.0005779636588 1242342.936908346
495.00057796365905 1242578.42593708
496.0005779636593 1242907.1651852618
497.0005779636595 1242991.2127968688
498.00057796365974 1243106.2283170861
499.00057796365996 1243317.4829527333
500.0005779636602 1243432.1355211025
501.0005779636604 1243633.0945282304
502.00057796366065 1243764.0643828956
503.0005779636609 1243895.912504888
504.0005779636611 1243956.8816709635
505.0005779636613 1244074.3390903657
506.00057796366156 1244230.9816362949
507.0005779636618 1244305.5637331568
508.000577963662 1244406.8057515868
509.00057796366224 1244476.0884350333
510.00057796366247 1244575.7453783117
511.0005779636627 1244635.9351337445
512.0005779636629 1244743.2826174358
513.000577963662 1244780.8277501666
514.000577963661 1244815.4342812465
515.0005779636601 1244869.0283180617
516.0005779636592 1244920.5272701962
517.0005779636583 1244956.6254768935
518.0005779636574 1244992.9131284396
519.0005779636565 1245067.4436866252
520.0005779636556 1245129.426808743
521.0005779636547 1245197.4605822694
522.0005779636538 1245271.0277432227
523.0005779636529 1245350.6886506572
524.000577963652 1245396.3464870583
525.000577963651 1245461.528216122
526.0005779636501 1245494.140363733
527.0005779636492 1245549.8335847077
