#####################################################################
# Alchemist log file - simulation started at: 2024-05-07T00:05+0000 #
#####################################################################
#
# seed = 11.0, nodeCount = 200, surrogateFrequency = 10, scenario = offloaded
#
# The columns have the following meaning: 
# time potential[sum] 
0.0 0.0
0.005751786020542937 0.0
1.002365747913101 0.0
2.005751786020543 0.0
3.002365747913101 0.0
4.005751786020543 2140.663512463203
5.002365747913101 3994.9584368908245
6.005751786020543 14035.602621999944
7.002365747913101 26168.4125311886
8.005751786020543 49684.707115188234
9.002365747913101 132838.49919831305
10.005751786020543 225353.09909935077
11.002365747913101 399947.59226003394
12.005751786020543 624903.5442823615
13.002365747913101 758837.1287355397
14.005751786020543 945879.7134803145
15.002365747913101 1095334.4247018162
16.005751786020543 1183465.293300594
17.002365747913103 1203668.435233234
18.005751786020543 1235871.904476469
19.002365747913103 1247353.0201932862
20.005751786020543 1245854.4791777323
21.002365747913103 1245607.0558766464
22.005751786020543 1245513.8098522392
23.002365747913103 1244854.7037296686
24.005751786020543 1244859.7822972543
25.002365747913103 1244883.2795179894
26.005751786020543 1244883.646468958
27.002365747913103 1244914.7164022054
28.005751786020543 1244914.0469827459
29.002365747913103 1244941.0825230866
30.005751786020543 1244940.5369612833
31.002365747913103 1244966.1615622323
32.00575178602054 1244965.7894502776
33.0023657479131 1244991.732942804
34.00575178602054 1244991.643387109
35.0023657479131 1245019.86290984
36.00575178602054 1245021.3864807398
37.0023657479131 1245046.269352087
38.00575178602054 1245045.8675372116
39.0023657479131 1245070.9257948957
40.00575178602054 1245068.1682246935
41.0023657479131 1245089.9763150346
42.00575178602054 1245087.9752675747
43.0023657479131 1245107.3678580828
44.00575178602054 1245104.5531964535
45.0023657479131 1245124.6584652637
46.00575178602054 1245124.6293329536
47.0023657479131 1245154.221027824
48.00575178602054 1245153.2307465028
49.0023657479131 1245185.593222078
50.00575178602054 1245183.7327448064
51.0023657479131 1245214.729407444
52.00575178602054 1244606.8230306783
53.0023657479131 1244637.1469610725
54.00575178602054 1244634.9600284775
55.0023657479131 1243480.2330375677
56.00575178602054 1242145.3265713083
57.0023657479131 1242156.3469865166
58.00575178602054 1242131.2593187536
59.0023657479131 1242051.6716478793
60.00575178602054 1242034.7328880585
61.0023657479131 1242045.6381794494
62.00575178602054 1242033.928485355
63.0023657479131 1242054.5089338685
64.00575178602054 1242049.4959531764
65.0023657479131 1242067.468732044
66.00575178602054 1242060.1773672185
67.0023657479131 1242071.4653268459
68.00575178602054 1242058.6782069497
69.0023657479131 1242089.1419880947
70.00575178602054 1242105.2372835737
71.0023657479131 1242089.7391186864
72.00575178602054 1242051.236481037
73.0023657479131 1242069.4882819424
74.00575178602054 1242068.3649820022
75.0023657479131 1242049.691662523
76.00575178602054 1242056.7199261822
77.0023657479131 1242019.1676817506
78.00575178602054 1241975.1852216728
79.0023657479131 1241992.0084477693
80.00575178602054 1242001.1356933892
81.0023657479131 1242014.7436234576
82.00575178602054 1242051.7972008921
83.0023657479131 1242063.9889154218
84.00575178602054 1242111.4907554684
85.0023657479131 1242118.0304594166
86.00575178602054 1242140.5525368147
87.0023657479131 1242149.368130084
88.00575178602054 1242156.5444478956
89.0023657479131 1242136.9511445963
90.00575178602054 1242109.1035921897
91.0023657479131 1242112.1516524784
92.00575178602054 1242125.177925533
93.0023657479131 1242123.9672760018
94.00575178602054 1242144.4243847434
95.0023657479131 1242144.3009344419
96.00575178602054 1242160.0836748302
97.0023657479131 1242170.175098321
98.00575178602054 1242174.301682669
99.0023657479131 1242184.1723555215
100.00575178602054 1242209.9806622777
101.0023657479131 1242215.6482586546
102.00575178602054 1242220.483256773
103.0023657479131 1242220.6400235365
104.00575178602054 1242225.4023691567
105.0023657479131 1242233.1411154508
106.00575178602054 1242233.6003484095
107.0023657479131 1242242.9715521582
108.00575178602054 1242247.62872657
109.0023657479131 1242263.7408626536
110.00575178602054 1242266.8227663408
111.0023657479131 1242289.5742588933
112.00575178602054 1242332.1708200045
113.0023657479131 1242372.9337345632
114.00575178602054 1242419.4161050234
115.0023657479131 1242500.8422784377
116.00575178602054 1242594.4023325513
117.0023657479131 1242697.435608867
118.00575178602054 1242844.5403042494
119.0023657479131 1242994.4966624002
120.00575178602054 1243169.6714542643
121.0023657479131 1243398.2200442627
122.00575178602054 1243640.4124284682
123.0023657479131 1243872.3563256047
124.00575178602054 1244147.6058408222
125.0023657479131 1244431.7179280084
126.00575178602054 1244712.4134202518
127.0023657479131 1244991.1120766853
128.00575178602054 1245310.3531849352
129.0023657479131 1245609.3007362853
130.00575178602054 1245941.1678411749
131.0023657479131 1246229.6175045243
132.00575178602054 1246552.0785738823
133.0023657479131 1246871.560689524
134.00575178602054 1247193.2280128621
135.0023657479131 1247452.3910996874
136.00575178602054 1247711.1166778463
137.0023657479131 1247978.885120525
138.00575178602054 1248231.812035937
139.0023657479131 1248447.4285401357
140.00575178602054 1248664.6034558145
141.0023657479131 1248850.3299539501
142.00575178602054 1249009.9983595463
143.0023657479131 1249122.1460652254
144.00575178602054 1249170.062149295
145.0023657479131 1249163.7861779882
146.00575178602054 1249066.2573135525
147.0023657479131 1248922.2273218646
148.00575178602054 1248714.9081655901
149.0023657479131 1248449.3826108617
150.00575178602054 1248140.1257367653
151.0023657479131 1247802.012050751
152.00575178602054 1247424.3744934865
153.0023657479131 1247063.7220787152
154.00575178602054 1246652.345699096
155.0023657479131 1246279.5000562223
156.00575178602054 1245854.1054913567
157.0023657479131 1245507.331090801
158.00575178602054 1245129.580803787
159.0023657479131 1244768.1826504425
160.00575178602054 1244373.1902528894
161.0023657479131 1244038.183128942
162.00575178602054 1243718.8134187334
163.0023657479131 1243431.2530464686
164.00575178602054 1243189.6256132599
165.0023657479131 1242997.791207959
166.00575178602054 1242863.3618431268
167.0023657479131 1242773.3118839466
168.00575178602054 1242687.1658471653
169.0023657479131 1242661.5530861348
170.00575178602054 1242582.2273936786
171.0023657479131 1242561.2188303703
172.00575178602054 1242621.2142027786
173.0023657479131 1242618.4109021102
174.00575178602054 1242585.1358245488
175.0023657479131 1242652.2355531927
176.00575178602054 1242688.8606153831
177.0023657479131 1242748.942506448
178.00575178602054 1242797.6272045556
179.0023657479131 1242888.1975259262
180.00575178602054 1243005.3392549665
181.0023657479131 1243124.4966644875
182.00575178602054 1243279.0264768451
183.0023657479131 1243450.4015294425
184.00575178602054 1243648.4090972524
185.0023657479131 1243844.4226523025
186.00575178602054 1244087.4842409943
187.0023657479131 1244335.7317633294
188.00575178602054 1244620.4225819153
189.0023657479131 1244919.8777914173
190.00575178602054 1245242.7813918493
191.0023657479131 1245554.5814255544
192.00575178602054 1245891.5734067461
193.0023657479131 1246258.714128486
194.00575178602054 1246633.5505854124
195.0023657479131 1247009.264031289
196.00575178602054 1247423.634507708
197.0023657479131 1246761.3831071262
198.00575178602054 1247194.4467751714
199.0023657479131 1247586.7497088467
200.00575178602054 1247999.4688922372
201.0023657479131 1248430.7404000731
202.00575178602054 1248884.5753884695
203.0023657479131 1249231.6571904714
204.00575178602054 1249634.140641342
205.0023657479131 1249886.0347725283
206.00575178602054 1250211.1217445417
207.0023657479131 1250339.6461814058
208.00575178602054 1250524.1756913217
209.0023657479131 1250550.1773118835
210.00575178602054 1250480.7670927471
211.0023657479131 1250377.3640357957
212.00575178602054 1250085.331528753
213.0023657479131 1249755.124872574
214.00575178602054 1249371.8895169247
215.0023657479131 1248918.5726839732
216.00575178602054 1248477.759201249
217.0023657479131 1247945.230066854
218.00575178602054 1247463.154985818
219.0023657479131 1247055.8230798696
220.00575178602054 1246637.2721886758
221.0023657479131 1246289.0076516327
222.00575178602054 1245919.8564110538
223.0023657479131 1245563.27594618
224.00575178602054 1245205.7980632095
225.0023657479131 1244847.569326428
226.00575178602054 1244466.9835661317
227.0023657479131 1244109.7359987109
228.00575178602054 1243797.0818634098
229.0023657479131 1244529.9341845014
230.00575178602054 1244283.1307999215
231.0023657479131 1244064.6873034274
232.00575178602054 1243924.23745664
233.0023657479131 1243838.3079565086
234.00575178602054 1243827.3078123303
235.0023657479131 1243909.3651082036
236.00575178602054 1244008.5133636005
237.0023657479131 1244102.5115249236
238.00575178602054 1244279.5646159544
239.0023657479131 1244486.1983534053
240.00575178602054 1244709.0735786743
241.0023657479131 1244935.0261219125
242.00575178602054 1245167.310032814
243.0023657479131 1245416.8247224502
244.00575178602054 1245699.4358289686
245.0023657479131 1245974.6620819943
246.00575178602054 1246250.717319525
247.0023657479131 1246513.0737035929
248.00575178602054 1246801.5872027592
249.0023657479131 1247076.2486517888
250.00575178602054 1247355.461598357
251.0023657479131 1247620.5965561513
252.00575178602054 1247907.9927177625
253.0023657479131 1248182.9892488008
254.00575178602054 1248466.376523708
255.0023657479131 1248727.2679702523
256.00575178602054 1249011.7324679736
257.00236574791313 1249278.0464507716
258.00575178602054 1249555.1867691234
259.00236574791313 1249784.0723453169
260.00575178602054 1250014.1293593803
261.00236574791313 1250213.533556526
262.00575178602054 1250419.9051022984
263.00236574791313 1250560.487839329
264.00575178602054 1250686.437516856
265.00236574791313 1250732.7267212865
266.00575178602054 1250719.529289455
267.00236574791313 1250661.5971750207
268.00575178602054 1250545.055558861
269.00236574791313 1250351.0238237577
270.00575178602054 1250126.4928360088
271.00236574791313 1249820.8146631494
272.00575178602054 1249465.2353641693
273.00236574791313 1249066.0267687738
274.00575178602054 1248660.019084288
275.00236574791313 1248259.4746232727
276.00575178602054 1247821.203282121
277.00236574791313 1247406.795232155
278.00575178602054 1246970.1337034353
279.00236574791313 1246565.6251926688
280.00575178602054 1246151.3077483436
281.00236574791313 1245794.7057339526
282.00575178602054 1245465.1408734228
283.00236574791313 1245168.6889011771
284.00575178602054 1244888.031739326
285.00236574791313 1244681.363742926
286.00575178602054 1244473.6332134192
287.00236574791313 1244335.8073265248
288.00575178602054 1244244.2023050156
289.00236574791313 1244208.8870291112
290.00575178602054 1244144.4439963936
291.00236574791313 1244110.031930539
292.00575178602054 1244118.3120910933
293.00236574791313 1244170.0658296244
294.00575178602054 1244213.0139389045
295.00236574791313 1244259.6955186413
296.00575178602054 1244328.2345815205
297.00236574791313 1244389.5246980991
298.00575178602054 1244475.236338034
299.00236574791313 1244553.1298695544
300.00575178602054 1244660.4125139934
301.00236574791313 1244760.7551779803
302.00575178602054 1244899.1308762264
303.00236574791313 1245042.4996950384
304.00575178602054 1245214.3152526412
305.00236574791313 1245397.3805770644
306.00575178602054 1245608.5067287886
307.00236574791313 1245813.1106759887
308.00575178602054 1246049.243195275
309.00236574791313 1246299.1484392418
310.00575178602054 1246596.1855223384
311.00236574791313 1246868.3793226886
312.00575178602054 1247207.3577615928
313.00236574791313 1247558.209236107
314.00575178602054 1247917.229635422
315.00236574791313 1248243.5345015237
316.00575178602054 1248632.2905062346
317.00236574791313 1248991.8721349724
318.00575178602054 1249394.0923218804
319.00236574791313 1249743.9995214224
320.00575178602054 1250120.105476584
321.00236574791313 1250458.0034193303
322.00575178602054 1250809.7126443714
323.00236574791313 1251092.8417729007
324.00575178602054 1251376.538511128
325.00236574791313 1251601.6156311685
326.00575178602054 1251804.7447810746
327.00236574791313 1251888.279812062
328.00575178602054 1251943.5278276415
329.00236574791313 1251858.98103115
330.00575178602054 1251625.5374989875
331.00236574791313 1251407.2644765046
332.00575178602054 1251031.4761257558
333.00236574791313 1250658.0968917313
334.00575178602054 1250286.1000030648
335.00236574791313 1249805.3249513628
336.00575178602054 1249293.3169935925
337.00236574791313 1248868.1152601473
338.00575178602054 1248488.7498852499
339.00236574791313 1248146.6801425908
340.00575178602054 1247753.5628538618
341.00236574791313 1247414.1835995882
342.00575178602054 1247034.5952162638
343.00236574791313 1246708.3706937176
344.00575178602054 1246403.1050373525
345.00236574791313 1246112.7317154792
346.00575178602054 1245755.4777771872
347.00236574791313 1245475.2698162405
348.00575178602054 1245162.2923329365
349.00236574791313 1244913.303283375
350.00575178602054 1244675.5133016792
351.00236574791313 1244493.937246189
352.00575178602054 1244322.0745950267
353.00236574791313 1244240.192042001
354.00575178602054 1244203.3336936608
355.00236574791313 1244261.5726102728
356.00575178602054 1244301.0339856648
357.00236574791313 1244380.5464762452
358.00575178602054 1244487.67967582
359.00236574791313 1244650.2065559842
360.00575178602054 1244821.639876322
361.00236574791313 1244995.714634939
362.00575178602054 1245201.7168267367
363.00236574791313 1245412.043328605
364.00575178602054 1246073.2557267607
365.00236574791313 1246299.7181918002
366.00575178602054 1246564.1600500932
367.00236574791313 1246809.4402950977
368.00575178602054 1247553.4313878387
369.00236574791313 1247805.2521653885
370.00575178602054 1248098.8127739655
371.00236574791313 1248463.017008788
372.00575178602054 1248790.0099743872
373.00236574791313 1248156.863323605
374.00575178602054 1247575.3909825657
375.00236574791313 1247812.0674120106
376.00575178602054 1248061.2489898473
377.00236574791313 1248120.6996115365
378.00575178602054 1248456.0803109417
379.00236574791313 1248681.062611572
380.00575178602054 1248981.6542244183
381.00236574791313 1249258.9173688719
382.00575178602054 1249418.6942590992
383.00236574791313 1249618.7933603048
384.00575178602054 1249826.2165255118
385.00236574791313 1249919.2036606644
386.00575178602054 1249960.1027140478
387.00236574791313 1249959.336368519
388.00575178602054 1249862.7961121388
389.00236574791313 1249755.4437315231
390.00575178602054 1249569.2363029358
391.00236574791313 1249264.7736069039
392.00575178602054 1248968.823214391
393.00236574791313 1248664.274644072
394.00575178602054 1248296.02668025
395.00236574791313 1247904.7530912936
396.00575178602054 1247539.9380700001
397.00236574791313 1247132.2917476376
398.00575178602054 1246730.5917908864
399.00236574791313 1246320.6493502322
400.00575178602054 1245920.5630109517
401.00236574791313 1245512.5406579908
402.00575178602054 1245119.775118395
403.00236574791313 1244718.4110567486
404.00575178602054 1244339.6048782428
405.00236574791313 1243960.9559716443
406.00575178602054 1243600.0056085733
407.00236574791313 1243259.5998486103
408.00575178602054 1242972.5324748047
409.00236574791313 1242681.5210643604
410.00575178602054 1242474.376394442
411.00236574791313 1242288.1775662075
412.00575178602054 1242138.3079685674
413.00236574791313 1242049.679882908
414.00575178602054 1242033.8826890942
415.00236574791313 1242047.2816111443
416.00575178602054 1242067.2333280235
417.00236574791313 1242140.390465193
418.00575178602054 1242251.5003243275
419.00236574791313 1242354.267074493
420.00575178602054 1242543.7676147593
421.00236574791313 1242713.4194060068
422.00575178602054 1242913.887743902
423.00236574791313 1243135.9459756326
424.00575178602054 1243421.8831177128
425.00236574791313 1243674.3114199545
426.00575178602054 1243992.9487973973
427.00236574791313 1244283.6096198766
428.00575178602054 1244619.056176835
429.00236574791313 1244936.8483678713
430.00575178602054 1245313.859103568
431.00236574791313 1245637.0485353244
432.00575178602054 1246028.8238452459
433.00236574791313 1246331.0418739966
434.00575178602054 1246715.0909744038
435.00236574791313 1247010.4009048014
436.00575178602054 1247352.6709765356
437.00236574791313 1247608.7000439295
438.00575178602054 1247943.7622179938
439.00236574791313 1248164.3213220974
440.00575178602054 1248429.6296174286
441.00236574791313 1248597.5628716345
442.00575178602054 1248774.6449197272
443.00236574791313 1248846.2667180928
444.00575178602054 1248859.3640965365
445.00236574791313 1248811.2756035796
446.00575178602054 1248744.437070067
447.00236574791313 1248669.3000606047
448.00575178602054 1248536.4371198309
449.00236574791313 1248328.1449635527
450.00575178602054 1248087.9187812302
451.00236574791313 1247797.755325128
452.00575178602054 1247460.2354840117
453.00236574791313 1247169.280286578
454.00575178602054 1246834.716810171
455.00236574791313 1246531.2087316532
456.00575178602054 1246196.1308789484
457.00236574791313 1245910.4424972946
458.00575178602054 1245562.853938998
459.00236574791313 1245284.3935955844
460.00575178602054 1244937.4736394503
461.00236574791313 1244634.7050193294
462.00575178602054 1244305.6773457243
463.00236574791313 1244005.7576533125
464.00575178602054 1243616.5888093272
465.00236574791313 1243334.8482638996
466.00575178602054 1242985.8227822783
467.00236574791313 1242680.852353941
468.00575178602054 1242409.435904766
469.00236574791313 1242169.8715331866
470.00575178602054 1241922.8969435096
471.00236574791313 1241775.950657289
472.00575178602054 1241671.6763022766
473.00236574791313 1241623.8918875884
474.00575178602054 1241574.4634608119
475.00236574791313 1241563.3861998445
476.00575178602054 1241554.4665270539
477.00236574791313 1241568.8961486986
478.00575178602054 1241595.4151260825
479.00236574791313 1241607.1405036647
480.00575178602054 1241647.4174509377
481.00236574791313 1241679.9112522416
482.00575178602054 1241721.6138105893
483.00236574791313 1241745.5311461256
484.00575178602054 1241805.9811633667
485.00236574791313 1241833.8375197868
486.00575178602054 1241887.1727935798
487.00236574791313 1241919.883046139
488.00575178602054 1241950.6170785888
489.00236574791313 1241987.6837462035
490.00575178602054 1242033.220385401
491.00236574791313 1242081.9064210642
492.00575178602054 1242129.271382408
493.00236574791313 1242312.8575287464
494.00575178602054 1242364.9458181416
495.00236574791313 1242528.4976468086
496.00575178602054 1242813.5727018504
497.00236574791313 1243016.1040589872
498.00575178602054 1243169.4345349236
499.00236574791313 1243347.7011770771
500.00575178602054 1243469.7386502998
501.00236574791313 1243555.8463912024
502.00575178602054 1243776.4680098398
503.00236574791313 1243866.651797699
504.00575178602054 1243966.017515776
505.00236574791313 1244115.2231526833
506.00575178602054 1244196.494695466
507.00236574791313 1244266.3133793848
508.00575178602054 1244369.9668417
509.00236574791313 1244502.9888505973
510.00575178602054 1244569.5689537774
511.00236574791313 1244652.508671219
512.0057517860205 1244722.5675508187
513.0023657479131 1244786.5001912706
514.0057517860205 1244844.7213905782
515.0023657479131 1244922.1168297264
516.0057517860205 1244959.1773871449
517.0023657479131 1244979.2705776757
518.0057517860205 1245035.6727022133
519.0023657479131 1245097.0589109515
520.0057517860205 1245140.220384853
521.0023657479131 1245214.1545262788
522.0057517860205 1245280.2130943192
523.0023657479131 1245337.0859580375
524.0057517860205 1245402.2451813184
525.0023657479131 1245449.4636150042
