#####################################################################
# Alchemist log file - simulation started at: 2024-05-07T00:05+0000 #
#####################################################################
#
# seed = 9.0, nodeCount = 200, surrogateFrequency = 10, scenario = offloaded
#
# The columns have the following meaning: 
# time potential[sum] 
0.0 0.0
0.003064607271383135 0.0
1.0014815792322058 0.0
2.003064607271383 0.0
3.001481579232206 0.0
4.003064607271384 0.0
5.001481579232205 3994.9584368908245
6.003064607271384 3994.9584368908245
7.001481579232205 10771.421063081583
8.003064607271384 29661.92830688229
9.001481579232205 72470.12094023118
10.003064607271384 133274.44380498628
11.001481579232205 252899.71335686254
12.003064607271384 447888.45287149574
13.001481579232205 602264.5498125413
14.003064607271384 776446.9861180906
15.001481579232205 1012389.7055944729
16.003064607271384 1143316.511715615
17.001481579232205 1208967.2293859436
18.003064607271384 1226166.3620040275
19.001481579232205 1235306.9372099168
20.003064607271384 1246435.8982724024
21.001481579232205 1245710.799679187
22.003064607271384 1244899.4395844508
23.001481579232205 1244867.9047777208
24.003064607271384 1244872.7649343393
25.001481579232205 1244890.5668019678
26.003064607271384 1244897.3525698828
27.001481579232205 1244921.9037605694
28.003064607271384 1244927.0056299597
29.001481579232205 1244947.9216694816
30.003064607271384 1244953.3218501583
31.001481579232205 1244972.5910929458
32.003064607271384 1244978.6369154647
33.001481579232205 1244998.6669912543
34.003064607271384 1245004.3728001565
35.001481579232205 1245025.0127197138
36.003064607271384 1245031.7280482664
37.001481579232205 1245046.9785693386
38.003064607271384 1245051.0598309187
39.001481579232205 1245068.844433108
40.003064607271384 1245070.6870841517
41.001481579232205 1245085.9067135446
42.003064607271384 1245089.7215930773
43.001481579232205 1245104.8068904171
44.003064607271384 1245113.3051691086
45.001481579232205 1245126.0968446934
46.003064607271384 1245135.7607315462
47.001481579232205 1245151.8849300675
48.003064607271384 1245163.8114314412
49.001481579232205 1245178.7980841696
50.003064607271384 1245191.6184523304
51.001481579232205 1245203.6583039602
52.003064607271384 1245215.8194212911
53.001481579232205 1245228.6961077368
54.003064607271384 1244631.4813345238
55.001481579232205 1244659.899519991
56.003064607271384 1244026.8566385913
57.001481579232205 1242210.0442562632
58.003064607271384 1242139.4609955004
59.001481579232205 1242140.527408451
60.003064607271384 1242031.545213351
61.001481579232205 1242037.0904000462
62.003064607271384 1242024.9527654538
63.001481579232205 1242042.5045444148
64.00306460727138 1242039.1084177722
65.0014815792322 1242057.2064579288
66.00306460727138 1242047.1380672422
67.0014815792322 1242064.4866813608
68.00306460727138 1242057.1106422788
69.0014815792322 1242100.607598898
70.00306460727138 1242082.1946956143
71.0014815792322 1242073.1673845148
72.00306460727138 1242054.5053000853
73.0014815792322 1242078.048856997
74.00306460727138 1242059.7438377899
75.0014815792322 1242066.6854422363
76.00306460727138 1242044.1836797383
77.0014815792322 1242001.241337719
78.00306460727138 1241983.161260264
79.0014815792322 1241980.265897719
80.00306460727138 1241972.712588641
81.0014815792322 1242014.026424011
82.00306460727138 1242027.1796557338
83.0014815792322 1242087.7830901651
84.00306460727138 1242098.395455688
85.0014815792322 1242116.9542115822
86.00306460727138 1242135.9708093652
87.0014815792322 1242133.9771810102
88.00306460727138 1242130.3156339724
89.0014815792322 1242108.0006816678
90.00306460727138 1242092.2723095077
91.0014815792322 1242105.975529313
92.00306460727138 1242100.9727004296
93.0014815792322 1242119.4562840562
94.00306460727138 1242121.2640964778
95.0014815792322 1242141.923230971
96.00306460727138 1242141.2465606292
97.0014815792322 1242164.2367326894
98.00306460727138 1242162.0173951234
99.0014815792322 1242201.922365482
100.00306460727138 1242192.2573156354
101.0014815792322 1242217.5771713788
102.00306460727138 1242214.14858119
103.0014815792322 1242225.9058076616
104.00306460727138 1242215.0785878228
105.0014815792322 1242233.6284941563
106.00306460727138 1242222.788574375
107.0014815792322 1242245.524264291
108.00306460727138 1242249.9410860194
109.0014815792322 1242263.0690898472
110.00306460727138 1242287.4739938087
111.0014815792322 1242340.292299686
112.00306460727138 1242376.4413633498
113.0014815792322 1242460.9116943155
114.00306460727138 1242553.62796771
115.0014815792322 1242671.0011841375
116.00306460727138 1242814.512738038
117.0014815792322 1242997.197553227
118.00306460727138 1243175.0516183958
119.0014815792322 1243391.1671898903
120.00306460727138 1243635.1787276287
121.0014815792322 1243897.964801424
122.00306460727138 1244167.9129400973
123.0014815792322 1244459.7425801635
124.00306460727138 1244763.2560191182
125.0014815792322 1245054.4174604062
126.00306460727138 1245366.6783745273
127.0014815792322 1245687.375125703
128.00306460727137 1245982.7888553415
129.0014815792322 1246311.2421557866
130.00306460727137 1246610.564383213
131.0014815792322 1246932.0695949679
132.00306460727137 1247240.618657602
133.0014815792322 1247544.0275036248
134.00306460727137 1247823.2016182516
135.0014815792322 1248063.6505899352
136.00306460727137 1248322.7537298566
137.0014815792322 1248527.7039699159
138.00306460727137 1248748.743957863
139.0014815792322 1248915.4181018984
140.00306460727137 1249070.553446716
141.0014815792322 1249195.5835430468
142.00306460727137 1249275.7205771322
143.0014815792322 1249273.1876412344
144.00306460727137 1249281.9371785617
145.0014815792322 1249136.030313828
146.00306460727137 1248982.2291865703
147.0014815792322 1248749.75146419
148.00306460727137 1248463.774887555
149.0014815792322 1248121.6803128792
150.00306460727137 1247796.2272332895
151.0014815792322 1247400.1574222262
152.00306460727137 1247048.0744827178
153.0014815792322 1246627.2144213822
154.00306460727137 1246265.4528607947
155.0014815792322 1245838.6705161715
156.00306460727137 1245479.926108775
157.0014815792322 1245086.6267614313
158.00306460727137 1244736.6611795395
159.0014815792322 1244337.9061438232
160.00306460727137 1244026.6661658396
161.0014815792322 1243693.4723903008
162.00306460727137 1243406.8985987236
163.0014815792322 1243157.130439306
164.00306460727137 1243009.1515096505
165.0014815792322 1242827.654925859
166.00306460727137 1242769.8369556428
167.0014815792322 1242650.526774881
168.00306460727137 1242625.1542400462
169.0014815792322 1242668.758082051
170.00306460727137 1242631.6232951921
171.0014815792322 1242616.1672848742
172.00306460727137 1242663.940364109
173.0014815792322 1242665.4269979107
174.00306460727137 1242695.9752060736
175.0014815792322 1242733.9958643524
176.00306460727137 1242792.6662583211
177.0014815792322 1242865.775638693
178.00306460727137 1242977.2752535362
179.0014815792322 1243087.3558863325
180.00306460727137 1243220.7365749117
181.0014815792322 1243397.214708398
182.00306460727137 1243591.6896248534
183.0014815792322 1243814.5519333046
184.00306460727137 1244051.3728497415
185.0014815792322 1244316.0638762715
186.00306460727137 1244590.3636999864
187.0014815792322 1244921.0920193554
188.00306460727137 1245233.937325728
189.0014815792322 1245609.4419341607
190.00306460727137 1245955.1617062627
191.0014815792322 1246359.5235148713
192.00306460727137 1246757.7607881913
193.0014815792322 1247178.6764393228
194.00306460727137 1247580.3682548103
195.0014815792322 1246960.7204347285
196.00306460727137 1247353.6490665863
197.0014815792322 1247804.2650968658
198.00306460727137 1248244.7488430697
199.0014815792322 1248686.8243610163
200.00306460727137 1249115.885195047
201.0014815792322 1249528.1423614398
202.00306460727137 1249888.1369903316
203.0014815792322 1250215.8850737282
204.00306460727137 1250522.1460251808
205.0014815792322 1250663.4612525422
206.00306460727137 1250818.5922305202
207.0014815792322 1250908.352347132
208.00306460727137 1250816.6373446253
209.0014815792322 1250671.1935254019
210.00306460727137 1250494.8744472985
211.0014815792322 1250216.9023384396
212.00306460727137 1249829.6907921627
213.0014815792322 1249400.5514335225
214.00306460727137 1248867.4683287214
215.0014815792322 1248365.5242276364
216.00306460727137 1247910.4389257252
217.0014815792322 1247426.4742749564
218.00306460727137 1247054.0325417707
219.0014815792322 1246666.712021099
220.00306460727137 1246311.2879182135
221.0014815792322 1245965.2097172567
222.00306460727137 1245602.0051101935
223.0014815792322 1245265.2738422598
224.00306460727137 1244903.7376652602
225.0014815792322 1244499.3875799256
226.00306460727137 1244186.1140798097
227.0014815792322 1243828.7892381924
228.00306460727137 1243491.2349733966
229.0014815792322 1244237.5140427654
230.00306460727137 1244063.864800993
231.0014815792322 1243864.0879840008
232.00306460727137 1243838.3698256325
233.0014815792322 1243844.8390533598
234.00306460727137 1243913.775151864
235.0014815792322 1244042.0028516904
236.00306460727137 1244189.5031831644
237.0014815792322 1244373.2473411625
238.00306460727137 1244606.412368618
239.0014815792322 1244875.8150334673
240.00306460727137 1245129.0553246315
241.0014815792322 1245405.081223128
242.00306460727137 1245661.2868845742
243.0014815792322 1245983.8910787676
244.00306460727137 1246260.92146209
245.0014815792322 1246575.325017878
246.00306460727137 1246852.9113385133
247.0014815792322 1247157.8137971172
248.00306460727137 1247426.4040443338
249.0014815792322 1247713.997561538
250.00306460727137 1247990.0043930036
251.0014815792322 1248276.2474859576
252.00306460727137 1248551.26597627
253.0014815792322 1248830.5894002689
254.00306460727137 1249097.9350861032
255.0014815792322 1249368.9913154428
256.00306460727137 1249622.878259154
257.0014815792322 1249880.1134512878
258.00306460727137 1250116.5272565575
259.0014815792322 1250311.6437541381
260.00306460727137 1250497.381789787
261.0014815792322 1250665.846486732
262.00306460727137 1250779.2496120182
263.0014815792322 1250872.9623501198
264.00306460727137 1250903.673917482
265.0014815792322 1250845.2760831213
266.00306460727137 1250793.2299651937
267.0014815792322 1250643.196755103
268.00306460727137 1250444.4946340164
269.0014815792322 1250178.7952889097
270.00306460727137 1249856.9229988242
271.0014815792322 1249483.1211801195
272.00306460727137 1249118.903490195
273.0014815792322 1248697.2953287829
274.00306460727137 1248304.0683967033
275.0014815792322 1247875.0192268142
276.00306460727137 1247463.8319944036
277.0014815792322 1247027.2712893945
278.00306460727137 1246634.7971829348
279.0014815792322 1246208.341954162
280.00306460727137 1245851.996383332
281.0014815792322 1245522.4208528174
282.00306460727137 1245181.7350581388
283.0014815792322 1244895.169349838
284.00306460727137 1244691.968139432
285.0014815792322 1244495.4688720105
286.00306460727137 1244344.7142219276
287.0014815792322 1244265.770388878
288.00306460727137 1244187.0205552836
289.0014815792322 1244138.6531806435
290.00306460727137 1244138.0165899512
291.0014815792322 1244160.5212998053
292.00306460727137 1244188.7970129617
293.0014815792322 1244245.096897613
294.00306460727137 1244290.185763863
295.0014815792322 1244363.0928452958
296.00306460727137 1244418.9570844357
297.0014815792322 1244502.0975212993
298.00306460727137 1244595.383974459
299.0014815792322 1244694.6814656763
300.00306460727137 1244806.3563891288
301.0014815792322 1244949.971358822
302.00306460727137 1245106.1247336774
303.0014815792322 1245301.1040119922
304.00306460727137 1245510.8009825903
305.0014815792322 1245757.22336596
306.00306460727137 1246006.6505730026
307.0014815792322 1246295.5537183075
308.00306460727137 1246567.7348665905
309.0014815792322 1246899.4827607477
310.00306460727137 1247231.571399665
311.0014815792322 1247586.7364303765
312.00306460727137 1247966.5081384808
313.0014815792322 1248368.8488294752
314.00306460727137 1248765.5569295099
315.0014815792322 1249162.461868891
316.00306460727137 1249552.258336252
317.0014815792322 1249976.2737292484
318.00306460727137 1250343.8975772623
319.0014815792322 1250709.736100788
320.00306460727137 1251056.7013260156
321.0014815792322 1251346.382672706
322.00306460727137 1251646.3417012065
323.0014815792322 1251841.786945161
324.00306460727137 1251997.2978508826
325.0014815792322 1252142.3406341784
326.00306460727137 1252138.120576939
327.0014815792322 1252145.807197667
328.00306460727137 1251982.4229598686
329.0014815792322 1251722.4959472087
330.00306460727137 1251470.611200782
331.0014815792322 1251120.0644556116
332.00306460727137 1250626.4895055564
333.0014815792322 1250199.3236816514
334.00306460727137 1249703.955058947
335.0014815792322 1249196.2103029198
336.00306460727137 1248831.053891748
337.0014815792322 1248480.480331553
338.00306460727137 1248124.4510398176
339.0014815792322 1247772.5093400497
340.00306460727137 1247432.1743950252
341.0014815792322 1247070.1044703496
342.00306460727137 1246754.9145353623
343.0014815792322 1246464.1292555113
344.00306460727137 1246162.7434353696
345.0014815792322 1245860.473728885
346.00306460727137 1245581.9981838358
347.0014815792322 1245284.751888729
348.00306460727137 1245021.1524525136
349.0014815792322 1244790.7553022488
350.00306460727137 1244571.9217972006
351.0014815792322 1244430.3588104986
352.00306460727137 1244318.3363436519
353.0014815792322 1244277.8824675814
354.00306460727137 1244293.7166108615
355.0014815792322 1244350.7624878776
356.00306460727137 1244449.293255285
357.0014815792322 1244607.0192737195
358.00306460727137 1244755.280517328
359.0014815792322 1244959.2114010514
360.00306460727137 1245137.8337365002
361.0014815792322 1245367.8124848788
362.00306460727137 1245576.9803091446
363.0014815792322 1245834.362308554
364.00306460727137 1246505.5220558124
365.0014815792322 1246745.5431412985
366.00306460727137 1247018.240593053
367.0014815792322 1247752.5011118837
368.00306460727137 1248041.522272002
369.0014815792322 1248311.6078302695
370.00306460727137 1248839.606173085
371.0014815792322 1249170.9820726379
372.00306460727137 1249291.112708839
373.0014815792322 1249584.5962039514
374.00306460727137 1249467.2974608592
375.0014815792322 1248836.085038434
376.00306460727137 1248607.9203539342
377.0014815792322 1248809.8787785384
378.00306460727137 1248843.812575136
379.0014815792322 1249091.386701373
380.00306460727137 1249360.9660883215
381.0014815792322 1249557.3190657336
382.00306460727137 1249774.9299648718
383.0014815792322 1249905.4369724677
384.00306460727137 1249934.4933545908
385.0014815792322 1250010.9641759093
386.00306460727137 1250027.682456578
387.0014815792322 1249954.0631259528
388.00306460727137 1249808.6143312708
389.0014815792322 1249658.633639651
390.00306460727137 1249337.7472622849
391.0014815792322 1249047.7183854564
392.00306460727137 1248704.8835576775
393.0014815792322 1248366.226581851
394.00306460727137 1247981.6825280506
395.0014815792322 1247615.7546126212
396.00306460727137 1247227.1054414131
397.0014815792322 1246829.753899683
398.00306460727137 1246430.6980556315
399.0014815792322 1246034.308419426
400.00306460727137 1245633.0472262553
401.0014815792322 1245239.4352072992
402.00306460727137 1244840.5691027362
403.0014815792322 1244459.1228348142
404.00306460727137 1244077.2906093227
405.0014815792322 1243710.791892176
406.00306460727137 1243368.681971602
407.0014815792322 1243063.91019855
408.00306460727137 1242759.5935434813
409.0014815792322 1242540.7953864788
410.00306460727137 1242341.325536671
411.0014815792322 1242198.9866795095
412.00306460727137 1242134.84885404
413.0014815792322 1242117.5161080784
414.00306460727137 1242108.7886923961
415.0014815792322 1242179.8156070719
416.00306460727137 1242276.184346076
417.0014815792322 1242434.0306258071
418.00306460727137 1242581.9507656738
419.0014815792322 1242795.1969282865
420.00306460727137 1243011.5707419028
421.0014815792322 1243282.7086662713
422.00306460727137 1243536.7249094115
423.0014815792322 1243842.1050668156
424.00306460727137 1244151.888969751
425.0014815792322 1244515.4126654828
426.00306460727137 1244843.5215527057
427.0014815792322 1245194.3386206704
428.00306460727137 1245537.1742518093
429.0014815792322 1245925.3583867247
430.00306460727137 1246275.763123092
431.0014815792322 1246657.3695506963
432.00306460727137 1246993.1865844326
433.0014815792322 1247362.9293396836
434.00306460727137 1247653.988588089
435.0014815792322 1247964.9361722283
436.00306460727137 1248239.5948145138
437.0014815792322 1248484.2894025305
438.00306460727137 1248673.0190212445
439.0014815792322 1248826.514866421
440.00306460727137 1248903.0835466601
441.0014815792322 1248962.3532288321
442.00306460727137 1248981.942085574
443.0014815792322 1248967.312189604
444.00306460727137 1248899.3509678429
445.0014815792322 1248781.8595846968
446.00306460727137 1248629.119379576
447.0014815792322 1248499.5040973106
448.00306460727137 1248297.2098567015
449.0014815792322 1248026.5705083916
450.00306460727137 1247752.2134734574
451.0014815792322 1247408.221976682
452.00306460727137 1247094.573920841
453.0014815792322 1246775.3036669279
454.00306460727137 1246475.0786996572
455.0014815792322 1246151.2382013279
456.00306460727137 1245858.3460290346
457.0014815792322 1245540.5957382952
458.00306460727137 1245241.068062078
459.0014815792322 1244928.52137996
460.00306460727137 1244617.1889364677
461.0014815792322 1244294.2675412484
462.00306460727137 1243988.005576334
463.0014815792322 1243637.7604242726
464.00306460727137 1243341.6142645874
465.0014815792322 1242996.0440749107
466.00306460727137 1242712.3057495505
467.0014815792322 1242424.6808241573
468.00306460727137 1242153.561911768
469.0014815792322 1241943.3516963734
470.00306460727137 1241802.3307914604
471.0014815792322 1241674.852296867
472.00306460727137 1241618.5412358958
473.0014815792322 1241583.768126837
474.00306460727137 1241556.3536781308
475.0014815792322 1241557.596288586
476.00306460727137 1241565.4164477538
477.0014815792322 1241590.6787329463
478.00306460727137 1241608.2657642115
479.0014815792322 1241653.565566937
480.00306460727137 1241670.0354695164
481.0014815792322 1241726.9202984811
482.00306460727137 1241750.8074293828
483.0014815792322 1241801.6736866075
484.00306460727137 1241831.8134438235
485.0014815792322 1241878.3741131374
486.00306460727137 1241923.4426449249
487.0014815792322 1241969.1687504405
488.00306460727137 1242011.954873938
489.0014815792322 1242054.0068006497
490.00306460727137 1242078.403076327
491.0014815792322 1242142.3924181429
492.00306460727137 1242295.9833016596
493.0014815792322 1242359.8585165062
494.00306460727137 1242433.9847600737
495.0014815792322 1242872.1214868447
496.00306460727137 1243026.8545005794
497.0014815792322 1243105.3608161272
498.00306460727137 1243320.3695733612
499.0014815792322 1243488.612857564
500.00306460727137 1243588.682250808
501.0014815792322 1243760.7349748597
502.00306460727137 1243882.615811113
503.0014815792322 1243989.2809389222
504.00306460727137 1244132.825458807
505.0014815792322 1244265.2807981842
506.00306460727137 1244368.2836473528
507.0014815792322 1244496.0676027995
508.00306460727137 1244539.8751325887
509.0014815792322 1244667.6939818591
510.00306460727137 1244763.2544667174
511.0014815792322 1244807.3121162988
512.0030646072714 1244883.656204728
513.0014815792322 1244914.94442441
514.0030646072714 1244959.0309851847
515.0014815792322 1244987.0857126475
516.0030646072714 1245042.3209050274
517.0014815792322 1245060.4017477084
518.0030646072714 1245143.05061351
519.0014815792322 1245215.5896950744
520.0030646072714 1245276.3096840794
521.0014815792322 1245343.761780596
522.0030646072714 1245411.837843484
523.0014815792322 1245472.0401386907
524.0030646072714 1245511.7949623074
525.0014815792322 1245555.5792969288
526.0030646072714 1245583.7533537773
527.0014815792322 1245613.7667268293
528.0030646072714 1245618.8075723615
529.0014815792322 1245621.9043089177
