#####################################################################
# Alchemist log file - simulation started at: 2024-05-07T00:09+0000 #
#####################################################################
#
# seed = 3.0, nodeCount = 200, surrogateFrequency = 20, scenario = offloaded
#
# The columns have the following meaning: 
# time potential[sum] 
0.0 0.0
8.179809606833066E-5 0.0
1.0000467756939382 0.0
2.0000817980960695 7565.970809399944
3.000046775693938 14730.005943577933
4.000081798096063 14730.005943577933
5.000046775693939 35570.6044625844
6.000081798096056 97603.20826103474
7.000046775693939 182955.18791534175
8.00008179809605 323219.0607280217
9.000046775693939 558094.1153369748
10.000081798096078 706761.4311031362
11.000046775693939 882439.6920495749
12.000081798096106 1021002.0944242346
13.000046775693939 1122787.3263761438
14.000081798096135 1210578.513759334
15.000046775693939 1216634.4424049014
16.00008179809616 1224433.1082693294
17.00004677569394 1235692.205360249
18.00008179809619 1246364.20934003
19.00004677569394 1245618.5216126393
20.000081798096218 1244843.5240140567
21.00004677569394 1244842.3489181958
22.000081798096247 1244847.1592533188
23.00004677569394 1244859.62468828
24.000081798096275 1244871.6926282512
25.00004677569394 1244888.736679474
26.000081798096303 1244896.3699209285
27.00004677569394 1244919.782479749
28.000081798096332 1244925.6445971283
29.00004677569394 1244945.8622330076
30.00008179809636 1244952.5542797106
31.00004677569394 1244970.2467559683
32.00008179809639 1244976.4949897712
33.00004677569394 1244995.7092276842
34.000081798096275 1245002.9136031768
35.00004677569394 1245022.3799403554
36.00008179809616 1245029.2675643913
37.00004677569394 1245045.375187623
38.00008179809605 1245050.6717501062
39.00004677569394 1245061.5979724312
40.000081798095934 1245067.337855614
41.00004677569394 1245079.510493057
42.00008179809582 1245087.246986642
43.00004677569394 1245102.8744953386
44.00008179809571 1245105.8195748236
45.00004677569394 1245126.81030653
46.00008179809559 1245129.1143788185
47.00004677569394 1245151.7042016622
48.00008179809548 1245155.0953951925
49.00004677569394 1245178.0248468064
50.000081798095366 1245180.607312906
51.00004677569394 1245203.3681162377
52.00008179809525 1245205.733024442
53.00004677569394 1245225.7582933875
54.00008179809514 1245240.5592079815
55.00004677569394 1244649.876501374
56.000081798095025 1244660.8517286803
57.00004677569394 1243998.0082677307
58.00008179809491 1242149.6368233426
59.00004677569394 1242159.8576609492
60.0000817980948 1242041.905110378
61.00004677569394 1242052.710117563
62.00008179809468 1242036.3344113205
63.00004677569394 1242053.3599374448
64.00008179809457 1242049.7810087549
65.00004677569393 1242064.1656765866
66.00008179809446 1242044.287032198
67.00004677569393 1242077.8708375217
68.00008179809434 1242069.832194487
69.00004677569393 1242089.4148640186
70.00008179809423 1242109.5392543983
71.00004677569393 1242109.3086030018
72.00008179809412 1242061.5530904867
73.00004677569393 1242074.7774491066
74.000081798094 1242064.8226809057
75.00004677569393 1242058.6038522124
76.00008179809389 1242055.673739001
77.00004677569393 1242037.7852827895
78.00008179809377 1241997.213438446
79.00004677569393 1241986.2731089762
80.00008179809366 1241948.288369183
81.00004677569393 1241992.414991417
82.00008179809355 1241979.959307872
83.00004677569393 1242015.3413543627
84.00008179809343 1242082.6618972088
85.00004677569393 1242075.0567779203
86.00008179809332 1242128.3243821305
87.00004677569393 1242134.687883889
88.0000817980932 1242134.274038586
89.00004677569393 1242130.7305247777
90.00008179809309 1242086.7334459666
91.00004677569393 1242100.7996247075
92.00008179809298 1242094.5128510694
93.00004677569393 1242118.3134042036
94.00008179809286 1242121.4734584948
95.00004677569393 1242142.240859575
96.00008179809275 1242138.1972484866
97.00004677569393 1242160.6591060674
98.00008179809264 1242153.0997354523
99.00004677569393 1242176.6821474184
100.00008179809252 1242186.7344335723
101.00004677569393 1242205.543613073
102.00008179809241 1242210.9877635783
103.00004677569393 1242225.0923576395
104.0000817980923 1242213.0114035013
105.00004677569393 1242229.7657084074
106.00008179809218 1242222.0653460643
107.00004677569393 1242246.2150110567
108.00008179809207 1242238.3265489405
109.00004677569393 1242259.4985299138
110.00008179809195 1242254.799594382
111.00004677569393 1242277.6656587226
112.00008179809184 1242312.7016681086
113.00004677569393 1242347.7097801655
114.00008179809173 1242406.938921242
115.00004677569393 1242493.5645501623
116.00008179809161 1242603.945274761
117.00004677569393 1242707.0597446123
118.0000817980915 1242864.1927937812
119.00004677569393 1243048.4930851774
120.00008179809139 1243237.1463959657
121.00004677569393 1243470.1124002782
122.00008179809127 1243729.6027394717
123.00004677569393 1243975.804096686
124.00008179809116 1244250.9189599357
125.00004677569393 1244546.3388263723
126.00008179809105 1244841.698885025
127.00004677569393 1245139.130243729
128.00008179809095 1245442.4134222497
129.00004677569393 1245741.8448236268
130.0000817980914 1246064.08352143
131.00004677569393 1246381.3727184518
132.00008179809186 1246713.9744358952
133.00004677569393 1247011.5521341132
134.0000817980923 1247328.1396475343
135.00004677569393 1247604.09958717
136.00008179809276 1247865.446649649
137.00004677569393 1248120.017514006
138.00008179809322 1248345.4505047714
139.00004677569393 1248579.900616031
140.00008179809367 1248786.1651703843
141.00004677569393 1248940.5655301353
142.00008179809413 1249122.0379287063
143.00004677569393 1249228.6921481115
144.00008179809458 1249304.6932740456
145.00004677569393 1249323.1390916198
146.00008179809504 1249278.5037942447
147.00004677569393 1249130.5377293888
148.0000817980955 1248993.1892915352
149.00004677569393 1248695.0911705918
150.00008179809595 1248463.8513536884
151.00004677569393 1248091.5402863328
152.0000817980964 1247786.0431441357
153.00004677569393 1247363.821283395
154.00008179809686 1247020.7199502017
155.00004677569393 1246591.4484612718
156.0000817980973 1246229.6417126427
157.00004677569393 1245807.9525785919
158.00008179809777 1245486.9809182663
159.00004677569393 1245059.6675329446
160.00008179809822 1244731.1590890395
161.00004677569393 1244330.8785932192
162.00008179809868 1244030.9955337786
163.00004677569393 1243641.6742563627
164.00008179809913 1243451.852754847
165.00004677569393 1243183.4237711623
166.0000817980996 1242980.2722383812
167.00004677569393 1242861.5880992927
168.00008179810004 1242745.4910892355
169.00004677569393 1242645.4388085618
170.0000817981005 1242676.6923165552
171.00004677569393 1242613.3628985817
172.00008179810095 1242650.6746669183
173.00004677569393 1242653.6906425848
174.0000817981014 1242681.0254042319
175.00004677569393 1242697.0609156797
176.00008179810186 1242756.276536325
177.00004677569393 1242831.5950335106
178.00008179810231 1242921.0635584297
179.00004677569393 1243014.372284329
180.00008179810277 1243135.2201793692
181.00004677569393 1243257.226625547
182.00008179810322 1243416.2465950195
183.00004677569393 1243586.6372622324
184.00008179810368 1243795.0420139446
185.00004677569393 1243995.846887992
186.00008179810413 1244241.234416171
187.00004677569393 1244510.7383294639
188.0000817981046 1244809.154348399
189.00004677569393 1245110.6238239505
190.00008179810504 1245454.579770277
191.00004677569393 1245771.7123522721
192.0000817981055 1246156.785059131
193.00004677569393 1246540.5716291554
194.00008179810595 1246941.3702525136
195.00004677569393 1247365.3805583592
196.0000817981064 1247771.6820223413
197.00004677569393 1247161.6473140859
198.00008179810686 1247567.514663159
199.00004677569393 1248055.4550798698
200.00008179810732 1248412.473201824
201.00004677569393 1248884.373469402
202.00008179810777 1249245.8568096347
203.00004677569393 1249672.1522139192
204.00008179810823 1249966.3233019733
205.00004677569393 1250314.5808828599
206.00008179810868 1250502.3797634146
207.00004677569393 1250683.9613929722
208.00008179810914 1250700.3212524932
209.00004677569393 1250743.9609143767
210.0000817981096 1250577.1440213872
211.00004677569393 1250303.811864974
212.00008179811005 1250091.3081047914
213.00004677569393 1249595.6279005283
214.0000817981105 1249260.0555991388
215.00004677569393 1248771.3273310112
216.00008179811095 1248311.6394073607
217.00004677569393 1247925.6642392427
218.0000817981114 1247578.5544580822
219.00004677569393 1247229.0318014903
220.00008179811186 1246871.6502296147
221.00004677569393 1246537.7575367787
222.00008179811232 1246195.4283845597
223.00004677569393 1245852.4304647942
224.00008179811277 1245543.4735703035
225.00004677569393 1245211.4537027446
226.00008179811323 1244849.195076937
227.00004677569393 1244504.2209331407
228.00008179811368 1244164.3004540273
229.00004677569393 1243772.4194611774
230.00008179811414 1243456.319422049
231.00004677569393 1244243.0418942058
232.0000817981146 1244016.9020599655
233.00004677569393 1243928.082420317
234.00008179811505 1243874.6017212258
235.00004677569393 1243913.1464228518
236.0000817981155 1243991.5857255897
237.00004677569393 1244129.6943360865
238.00008179811596 1244282.8857946394
239.00004677569393 1244516.1961969524
240.0000817981164 1244717.8613180737
241.00004677569393 1244991.861117842
242.00008179811687 1245219.42984413
243.00004677569393 1245500.5331339862
244.00008179811732 1245743.8278153548
245.00004677569393 1246055.0765654224
246.00008179811778 1246343.4541756595
247.00004677569393 1246636.9057858316
248.00008179811823 1246910.49438628
249.00004677569393 1247196.375000125
250.00008179811869 1247461.73835172
251.00004677569393 1247755.9587621137
252.00008179811914 1248010.6391056029
253.00004677569393 1248302.3410715412
254.0000817981196 1248560.899956574
255.00004677569393 1248853.4909848648
256.00008179812005 1249098.716750299
257.00004677569393 1249387.6876889197
258.0000817981205 1249628.5664075378
259.00004677569393 1249894.6543220817
260.00008179812096 1250097.4182713137
261.00004677569393 1250330.0726707333
262.0000817981214 1250516.876718797
263.00004677569393 1250668.3696504296
264.00008179812187 1250803.6724483492
265.00004677569393 1250897.3121687674
266.0000817981223 1250873.406864316
267.00004677569393 1250892.895861549
268.0000817981228 1250798.0341855541
269.00004677569393 1250620.4264823708
270.00008179812323 1250430.2413452188
271.00004677569393 1250093.939701
272.0000817981237 1249793.760620645
273.00004677569393 1249397.922439342
274.00008179812414 1249030.1049921203
275.00004677569393 1248598.7075445706
276.0000817981246 1248209.9949907192
277.00004677569393 1247770.0533366546
278.00008179812505 1247364.7898028991
279.00004677569393 1246920.040760836
280.0000817981255 1246520.3825367033
281.00004677569393 1246127.2610683532
282.00008179812596 1245744.7405891751
283.00004677569393 1245360.074068252
284.0000817981264 1245070.5243280048
285.00004677569393 1244750.34351401
286.00008179812687 1244530.3077104215
287.00004677569393 1244371.230420447
288.0000817981273 1244229.76669366
289.00004677569393 1244206.7659623364
290.0000817981278 1244155.107319559
291.00004677569393 1244169.6650896133
292.00008179812824 1244187.6433312264
293.00004677569393 1244237.7090901881
294.0000817981287 1244282.9443079508
295.00004677569393 1244369.3826450089
296.00008179812914 1244415.6773713273
297.00004677569393 1244502.5971996654
298.0000817981296 1244572.3668787517
299.00004677569393 1244664.4305337444
300.00008179813005 1244745.65069897
301.00004677569393 1244849.6947167532
302.0000817981305 1244977.6166150745
303.00004677569393 1245131.2780564043
304.00008179813096 1245294.5740848002
305.00004677569393 1245483.9575721684
306.0000817981314 1245686.3942281143
307.00004677569393 1245905.6912597532
308.0000817981319 1246164.6857988238
309.00004677569393 1246444.9838069025
310.0000817981323 1246745.7539495674
311.00004677569393 1247066.1812218986
312.0000817981328 1247397.0845163856
313.00004677569393 1247772.95568491
314.00008179813324 1248117.6453628542
315.00004677569393 1248547.2277954125
316.0000817981337 1248917.108237405
317.00004677569393 1249334.9275594885
318.00008179813415 1249714.0085426033
319.00004677569393 1250135.7575712628
320.0000817981346 1250454.3272315804
321.00004677569393 1250827.367861423
322.00008179813506 1251103.2228276818
323.00004677569393 1251451.2609530748
324.0000817981355 1251649.868010517
325.00004677569393 1251855.1604562837
326.00008179813597 1251979.6214724078
327.00004677569393 1252064.5473219508
328.0000817981364 1251989.3591559525
329.00004677569393 1251909.238343214
330.0000817981369 1251687.967018108
331.00004677569393 1251292.8018510928
332.00008179813733 1251008.185818114
333.00004677569393 1250525.0574092737
334.0000817981378 1250084.2633517461
335.00004677569393 1249712.6200881978
336.00008179813824 1249326.4681687485
337.00004677569393 1249005.9328480808
338.0000817981387 1248664.5941357482
339.00004677569393 1248332.616940468
340.00008179813915 1248035.9044204887
341.00004677569393 1247690.8617644438
342.0000817981396 1247359.797601241
343.00004677569393 1247037.000587626
344.00008179814006 1246711.8647516102
345.00004677569393 1246410.106022268
346.0000817981405 1246107.9551668093
347.00004677569393 1245837.167397366
348.00008179814097 1245519.0403921457
349.00004677569393 1245233.043049498
350.0000817981414 1244975.572504846
351.00004677569393 1244675.5372142443
352.0000817981419 1244465.8770950974
353.00004677569393 1244308.4968458938
354.00008179814233 1244209.5507573355
355.00004677569393 1244177.021170708
356.0000817981428 1244159.2572225938
357.00004677569393 1244236.7578614033
358.00008179814324 1244299.3856595568
359.00004677569393 1244425.709847826
360.0000817981437 1244541.5498352076
361.00004677569393 1244720.2922448819
362.00008179814415 1244875.8534975778
363.00004677569393 1245085.0736611288
364.0000817981446 1245294.7402123811
365.00004677569393 1245526.298285171
366.00008179814506 1245742.1007078392
367.00004677569393 1246411.9863135894
368.0000817981455 1246661.2785243182
369.00004677569393 1246963.8933587696
370.00008179814597 1247725.8494157384
371.00004677569393 1247979.1897098438
372.0000817981464 1248516.5276489658
373.00004677569393 1248830.318705769
374.0000817981469 1248987.7058693154
375.00004677569393 1249266.5384717758
376.00008179814733 1248766.3928816465
377.00004677569393 1248155.707244683
378.0000817981478 1248229.5943597083
379.00004677569393 1248361.8171467762
380.00008179814824 1248544.0852820224
381.00004677569393 1248829.000091575
382.0000817981487 1249062.6061485016
383.00004677569393 1249258.8731352857
384.00008179814915 1249462.66247272
385.00004677569393 1249630.918395508
386.0000817981496 1249785.1004098211
387.00004677569393 1249902.7147882245
388.00008179815006 1249970.992566134
389.00004677569393 1249918.8813379537
390.0000817981505 1249832.5697504918
391.00004677569393 1249619.386524248
392.000081798151 1249481.7901434237
393.00004677569393 1249156.5380616705
394.0000817981514 1248914.8691077146
395.00004677569393 1248545.4439366222
396.0000817981519 1248207.7942668844
397.00004677569393 1247801.9118404628
398.00008179815234 1247443.7640120653
399.00004677569393 1247003.532566723
400.0000817981528 1246629.778102266
401.00004677569393 1246190.3446087206
402.00008179815325 1245819.9874336547
403.00004677569393 1245382.2445485303
404.0000817981537 1245015.6146795687
405.00004677569393 1244596.1762295924
406.00008179815416 1244239.1435171016
407.00004677569393 1243834.678201904
408.0000817981546 1243518.08740722
409.00004677569393 1243134.2607992268
410.00008179815507 1242889.7416875034
411.00004677569393 1242595.7221263896
412.0000817981555 1242399.5963872988
413.00004677569393 1242233.3263647319
414.000081798156 1242148.8363718654
415.00004677569393 1242093.2510583315
416.00008179815643 1242094.7154711059
417.00004677569393 1242160.0875242236
418.0000817981569 1242252.679973396
419.00004677569393 1242341.8761014557
420.00008179815734 1242534.1964627407
421.00004677569393 1242733.9373009957
422.0000817981578 1242933.0780891578
423.00004677569393 1243171.4740117278
424.00008179815825 1243452.4673881445
425.00004677569393 1243734.510657148
426.0000817981587 1244037.4805136279
427.00004677569393 1244380.800546932
428.00008179815916 1244717.1907177966
429.00004677569393 1245084.7804587204
430.0000817981596 1245408.362888524
431.00004677569393 1245789.8359543255
432.00008179816007 1246137.0166836777
433.00004677569393 1246507.541333593
434.0000817981605 1246850.125738435
435.00004677569393 1247217.5540532698
436.000081798161 1247512.8418656716
437.00004677569393 1247836.9869734473
438.00008179816143 1248097.8955008641
439.00004677569393 1248373.8892754337
440.0000817981619 1248575.772640802
441.00004677569393 1248776.8937280595
442.00008179816234 1248903.0112220817
443.00004677569393 1248998.8186092011
444.0000817981628 1249012.716669365
445.00004677569393 1249011.610523635
446.00008179816325 1248939.8380467305
447.00004677569393 1248819.2811651619
448.0000817981637 1248672.9294180616
449.00004677569393 1248450.9939007908
450.00008179816416 1248284.160755832
451.00004677569393 1248043.7123827664
452.0000817981646 1247771.7110248117
453.00004677569393 1247458.8658985924
454.00008179816507 1247149.1316818704
455.00004677569393 1246805.5591671364
456.0000817981655 1246504.7533155326
457.00004677569393 1246174.8134352476
458.000081798166 1245883.2264309179
459.00004677569393 1245549.1643812412
460.00008179816643 1245264.5046120165
461.00004677569393 1244942.5838924234
462.0000817981669 1244650.5032354938
463.00004677569393 1244327.9275897227
464.00008179816734 1244015.5981070923
465.00004677569393 1243719.9321721776
466.0000817981678 1243377.544887562
467.00004677569393 1243044.9938908159
468.00008179816825 1242778.1932702137
469.00004677569393 1242409.7100541787
470.0000817981687 1242206.9223107575
471.00004677569393 1241988.3040285893
472.00008179816916 1241792.0611095629
473.00004677569393 1241658.1199917728
474.0000817981696 1241600.3995076288
475.00004677569393 1241565.834843082
476.0000817981701 1241554.0409963282
477.00004677569393 1241566.458888565
478.0000817981705 1241574.7478182316
479.00004677569393 1241596.319355701
480.000081798171 1241623.6952238523
481.00004677569393 1241653.8229443727
482.00008179817144 1241697.3403511285
483.00004677569393 1241733.670100656
484.0000817981719 1241773.1472044121
485.00004677569393 1241802.7920606604
486.00008179817235 1241850.9954834261
487.00004677569393 1241881.206589754
488.0000817981728 1241927.409457119
489.00004677569393 1241967.0043165223
490.00008179817326 1242013.2334087277
491.00004677569393 1242053.7574167517
492.0000817981737 1242107.4293432415
493.00004677569393 1242186.4746792798
494.00008179817416 1242350.697768916
495.00004677569393 1242415.1966195616
496.0000817981746 1242596.9997623826
497.00004677569393 1242866.708513556
498.0000817981751 1243047.9439021042
499.00004677569393 1243202.8045943794
500.00008179817553 1243383.3230043503
501.00004677569393 1243479.1372964114
502.000081798176 1243564.4980449572
503.00004677569393 1243793.6013353076
504.00008179817644 1243889.8565852544
505.00004677569393 1244003.6807550462
506.0000817981769 1244154.3767469185
507.00004677569393 1244241.8538489526
508.00008179817735 1244334.323856809
509.00004677569393 1244438.6917700197
510.0000817981778 1244547.383536508
511.00004677569393 1244612.84181555
512.0000817981783 1244720.4875810116
513.0000467756939 1244779.3669843965
514.0000817981764 1244820.9694914788
515.0000467756939 1244862.944017561
516.0000817981746 1244925.2216053028
517.0000467756939 1244934.019036162
518.0000817981728 1245002.2054277016
519.0000467756939 1245045.0763800456
520.000081798171 1245100.3975494509
521.0000467756939 1245153.443953365
522.0000817981692 1245236.413947099
523.0000467756939 1245300.6216602651
524.0000817981673 1245368.8245983233
525.0000467756939 1245420.1035204877
