#####################################################################
# Alchemist log file - simulation started at: 2024-05-06T23:59+0000 #
#####################################################################
#
# seed = 0.0, nodeCount = 200, surrogateFrequency = 1, scenario = offloaded
#
# The columns have the following meaning: 
# time potential[sum] 
0.0 0.0
0.0022674665224906576 0.0
1.0025276528499534 0.0
2.0022674665224907 0.0
3.0025276528499534 551.5317110262947
4.002267466522491 2140.663512463203
5.002527652849953 3994.9584368908245
6.002267466522491 12591.677811290174
7.002527652849953 26090.915934373174
8.00226746652249 56210.398122178754
9.002527652849952 114859.78475785718
10.00226746652249 191900.55514046882
11.002527652849952 426719.8068339886
12.00226746652249 630680.3493310236
13.002527652849952 808219.1452142352
14.00226746652249 970869.1223973706
15.002527652849952 1143730.2795192162
16.00226746652249 1201373.2946454608
17.002527652849952 1226166.484050983
18.00226746652249 1247172.6103673847
19.002527652849952 1246485.0353537172
20.00226746652249 1244884.8410489224
21.002527652849952 1244845.1150008226
22.00226746652249 1244828.0909955576
23.002527652849952 1244817.4466879934
24.00226746652249 1244834.5127137227
25.002527652849952 1244839.6182693874
26.00226746652249 1244860.6343581905
27.002527652849952 1244864.8672598766
28.00226746652249 1244888.0363408732
29.002527652849952 1244891.999556717
30.00226746652249 1244918.5319525234
31.002527652849952 1244922.298953713
32.00226746652249 1244943.5593052069
33.00252765284995 1244946.3402527967
34.00226746652249 1244966.822331299
35.00252765284995 1244973.5179847437
36.00226746652249 1244994.675261494
37.00252765284995 1245002.1841140864
38.00226746652249 1245024.0326866815
39.00252765284995 1245031.847672628
40.00226746652249 1245052.6524694937
41.00252765284995 1245061.2523126747
42.00226746652249 1245083.0623301775
43.00252765284995 1245085.4794243965
44.00226746652249 1245110.5061955217
45.00252765284995 1245110.004889615
46.00226746652249 1245134.3088834872
47.00252765284995 1245134.813537874
48.00226746652249 1245160.4806747173
49.00252765284995 1245165.4998684595
50.00226746652249 1245193.128636066
51.00252765284995 1245199.868821383
52.00226746652249 1245227.597963868
53.00252765284995 1245228.9381782196
54.00226746652249 1245256.8692135399
55.00252765284995 1245265.1577483395
56.00226746652249 1244677.8520635506
57.00252765284995 1244678.2664578797
58.00226746652249 1244057.5199362945
59.00252765284995 1243381.4584061045
60.00226746652249 1242126.5801134082
61.00252765284995 1242100.6973249856
62.00226746652249 1242104.5544679356
63.00252765284995 1241996.5467452272
64.00226746652248 1242006.021259731
65.00252765284995 1241994.9808930182
66.00226746652248 1242006.5396259315
67.00252765284995 1241997.6034967306
68.00226746652248 1242014.2876228592
69.00252765284995 1242020.4296787796
70.00226746652248 1242042.4465522321
71.00252765284995 1242045.1508499472
72.00226746652248 1242054.0618382639
73.00252765284995 1242022.3860777388
74.00226746652248 1242018.549300787
75.00252765284995 1241990.9542882233
76.00226746652248 1241974.4287964383
77.00252765284995 1241924.941911059
78.00226746652248 1241906.2295983785
79.00252765284995 1241821.997793257
80.00226746652248 1241825.306156542
81.00252765284995 1241757.140705012
82.00226746652248 1241798.272378704
83.00252765284995 1241797.6115487053
84.00226746652248 1241858.8272655148
85.00252765284995 1241889.8215097105
86.00226746652248 1241950.9817763313
87.00252765284995 1242017.0446740845
88.00226746652248 1242062.539047647
89.00252765284995 1242118.260639443
90.00226746652248 1242111.1664762099
91.00252765284995 1242079.891716077
92.00226746652248 1242054.9651236876
93.00252765284995 1242016.1786262698
94.00226746652248 1242022.4462555312
95.00252765284995 1241996.000136224
96.00226746652248 1242029.6877179076
97.00252765284995 1242010.5540107219
98.00226746652248 1242048.317660017
99.00252765284995 1242035.228089755
100.00226746652248 1242080.0184306556
101.00252765284995 1242081.8357639504
102.00226746652248 1242135.4918327532
103.00252765284995 1242140.3834152287
104.00226746652248 1242185.1712734716
105.00252765284995 1242185.90106349
106.00226746652248 1242212.9595000737
107.00252765284995 1242214.6712303148
108.00226746652248 1242237.938389608
109.00252765284995 1242241.1178827551
110.00226746652248 1242267.1429738458
111.00252765284995 1242266.844986121
112.00226746652248 1242304.4489881091
113.00252765284995 1242332.4799279268
114.00226746652248 1242387.1413797368
115.00252765284995 1242448.880508471
116.00226746652248 1242547.9242720164
117.00252765284995 1242656.4169834012
118.00226746652248 1242790.8613155885
119.00252765284995 1242944.3635303255
120.00226746652248 1243112.5815655203
121.00252765284995 1243311.6280592007
122.00226746652248 1243505.4202192465
123.00252765284995 1243764.9085376067
124.00226746652248 1244016.2545050434
125.00252765284995 1244297.475152854
126.00226746652248 1244574.7219579425
127.00252765284995 1244896.469539302
128.00226746652248 1245170.2673238795
129.00252765284995 1245493.3760287622
130.00226746652248 1245781.352748467
131.00252765284995 1246109.5975184187
132.00226746652248 1246392.7915801795
133.00252765284995 1246721.1363907142
134.00226746652248 1246997.4373563083
135.00252765284995 1247324.0952630187
136.00226746652248 1247563.1684019526
137.00252765284995 1247817.7010363499
138.00226746652248 1248006.3616124343
139.00252765284995 1248243.844389185
140.00226746652248 1248415.7503224483
141.00252765284995 1248635.7334780835
142.00226746652248 1248774.851331565
143.00252765284995 1248949.9438679551
144.00226746652248 1249041.4562678246
145.00252765284995 1249131.2898535542
146.00226746652248 1249135.4352067697
147.00252765284995 1249113.847116465
148.00226746652248 1248988.764664638
149.00252765284995 1248832.4073818193
150.00226746652248 1248604.9575173366
151.00252765284995 1248312.9373228997
152.00226746652248 1248019.3679926228
153.00252765284995 1247654.7991286386
154.00226746652248 1247326.7576148359
155.00252765284995 1246915.242540457
156.00226746652248 1246566.5705550583
157.00252765284995 1246139.851053954
158.00226746652248 1245806.317084486
159.00252765284995 1245404.6917566396
160.00226746652248 1245088.9101042058
161.00252765284995 1244696.7126025066
162.00226746652248 1244395.5267292117
163.00252765284995 1244039.1144693915
164.00226746652248 1243788.6675623362
165.00252765284995 1243495.5423090549
166.00226746652248 1243273.2826423952
167.00252765284995 1243042.7355209058
168.00226746652248 1242932.6611608283
169.00252765284995 1242781.9112845084
170.00226746652248 1242679.5508728442
171.00252765284995 1242632.9560849862
172.00226746652248 1242692.4481952798
173.00252765284995 1242657.3004112556
174.00226746652248 1242644.2353975393
175.00252765284995 1242729.710669281
176.00226746652248 1242766.2208446339
177.00252765284995 1242804.99296719
178.00226746652248 1242857.115414201
179.00252765284995 1242935.8880284666
180.00226746652248 1243032.9168790926
181.00252765284995 1243142.6931038112
182.00226746652248 1243267.9789285874
183.00252765284995 1243419.8382509535
184.00226746652248 1243599.1164658384
185.00252765284995 1243799.679394639
186.00226746652248 1244014.1739838219
187.00252765284995 1244279.6522994563
188.00226746652248 1244550.6373090644
189.00252765284995 1244879.109754812
190.00226746652248 1245177.554477971
191.00252765284995 1245561.9439252282
192.00226746652248 1245934.7532989183
193.00252765284995 1246346.439190076
194.00226746652248 1246741.9163995332
195.00252765284995 1247199.844499754
196.00226746652248 1246506.9700405
197.00252765284995 1246975.2760746765
198.00226746652248 1247395.0435543207
199.00252765284995 1247899.8720720275
200.00226746652248 1248337.7494844873
201.00252765284995 1248799.802510468
202.00226746652248 1249212.1993996154
203.00252765284995 1249614.7292618677
204.00226746652248 1249968.204442003
205.00252765284995 1250334.2013569393
206.00226746652248 1250529.43703336
207.00252765284995 1250772.1679016196
208.00226746652248 1250835.749556304
209.00252765284995 1250860.2404634615
210.00226746652248 1250825.8567165066
211.00252765284995 1250611.1445598905
212.00226746652248 1250378.741115182
213.00252765284995 1250057.345278171
214.00226746652248 1249731.332362191
215.00252765284995 1249291.9375022464
216.00226746652248 1248946.6305308463
217.00252765284995 1248446.2546184997
218.00226746652248 1248084.172245211
219.00252765284995 1247651.856666652
220.00226746652248 1247334.7726507077
221.00252765284995 1246913.680815201
222.00226746652248 1246615.6339559637
223.00252765284995 1246228.8952760373
224.00226746652248 1245932.6582370647
225.00252765284995 1245552.182503086
226.00226746652248 1245269.5196318605
227.00252765284995 1244889.687131789
228.00226746652248 1245646.211415715
229.00252765284995 1245253.8706062625
230.00226746652248 1244879.8314495026
231.00252765284995 1244527.639278168
232.00226746652248 1244248.4197926205
233.00252765284995 1243982.9648439237
234.00226746652248 1243852.8683650088
235.00252765284995 1243781.0867736507
236.00226746652248 1243834.9954665909
237.00252765284995 1243892.364940672
238.00226746652248 1244034.5383321242
239.00252765284995 1244177.16721888
240.00226746652248 1244402.9110570177
241.00252765284995 1244602.0648957477
242.00226746652248 1244843.1971467298
243.00252765284995 1245090.783934591
244.00226746652248 1245387.5908037887
245.00252765284995 1245655.678706401
246.00226746652248 1245959.2292994082
247.00252765284995 1246264.2259884737
248.00226746652248 1246575.3754109123
249.00252765284995 1246895.2261692146
250.00226746652248 1247182.4686445917
251.00252765284995 1247512.4813683208
252.00226746652248 1247767.7578280207
253.00252765284995 1248078.365261499
254.00226746652248 1248326.976576184
255.00252765284995 1248632.8511502724
256.0022674665225 1248877.5654140576
257.00252765284995 1249180.8010048824
258.0022674665225 1249417.1598366324
259.00252765284995 1249707.7999345716
260.0022674665225 1249919.45131694
261.00252765284995 1250172.9291754968
262.0022674665225 1250337.9571215142
263.00252765284995 1250562.450014617
264.0022674665225 1250668.4713830014
265.00252765284995 1250821.622921381
266.0022674665225 1250854.2294295577
267.00252765284995 1250892.915077422
268.0022674665225 1250834.9791067063
269.00252765284995 1250769.5076656418
270.0022674665225 1250605.3249635906
271.00252765284995 1250417.3147094108
272.0022674665225 1250165.329185857
273.00252765284995 1249818.5944392234
274.0022674665225 1249485.1430612628
275.00252765284995 1249074.644244377
276.0022674665225 1248709.646382774
277.00252765284995 1248267.80967818
278.0022674665225 1247884.9258881463
279.00252765284995 1247405.9824507101
280.0022674665225 1247031.540853746
281.00252765284995 1246583.251531288
282.0022674665225 1246221.6795810084
283.00252765284995 1245819.3984264573
284.0022674665225 1245497.6772957006
285.00252765284995 1245146.3992758966
286.0022674665225 1244898.512584955
287.00252765284995 1244652.6138003443
288.0022674665225 1244502.8218513343
289.00252765284995 1244340.830790348
290.0022674665225 1244273.2927337654
291.00252765284995 1244247.7585877927
292.0022674665225 1244246.95159017
293.00252765284995 1244270.4999532704
294.0022674665225 1244292.6704493107
295.00252765284995 1244345.3295118827
296.0022674665225 1244395.2733916098
297.00252765284995 1244454.2236429844
298.0022674665225 1244516.3785743585
299.00252765284995 1244591.3138174769
300.0022674665225 1244665.722318451
301.00252765284995 1244761.3605439148
302.0022674665225 1244860.7082864256
303.00252765284995 1244995.1314902173
304.0022674665225 1245134.1818443725
305.00252765284995 1245320.54820152
306.0022674665225 1245508.6175139202
307.00252765284995 1245735.65191852
308.0022674665225 1245975.903832556
309.00252765284995 1246246.3642756867
310.0022674665225 1246542.4812889437
311.00252765284995 1246870.0306758313
312.0022674665225 1247194.462416113
313.00252765284995 1247563.7849587356
314.0022674665225 1247964.7208956715
315.00252765284995 1248349.3360279836
316.0022674665225 1248746.5901440384
317.00252765284995 1249171.4332233008
318.0022674665225 1249561.805273689
319.00252765284995 1249981.0824397465
320.0022674665225 1250353.8827109714
321.00252765284995 1250744.6093447434
322.0022674665225 1251044.5724055483
323.00252765284995 1251402.9409404367
324.0022674665225 1251630.3351495932
325.00252765284995 1251955.5320104258
326.0022674665225 1252067.4666610735
327.00252765284995 1252215.6744741995
328.0022674665225 1252231.529710831
329.00252765284995 1252169.321038895
330.0022674665225 1252031.8718024516
331.00252765284995 1251752.9589150876
332.0022674665225 1251374.8729147876
333.00252765284995 1251087.381107397
334.0022674665225 1250728.961331194
335.00252765284995 1250215.9774704021
336.0022674665225 1249826.9686482924
337.00252765284995 1249447.2448014407
338.0022674665225 1249135.6121434248
339.00252765284995 1248781.8830663553
340.0022674665225 1248487.8962534042
341.00252765284995 1248163.121341019
342.0022674665225 1247828.5571691734
343.00252765284995 1247485.2485375435
344.0022674665225 1247152.7420208044
345.00252765284995 1246813.5016828564
346.0022674665225 1246496.1703209565
347.00252765284995 1246186.6575445826
348.0022674665225 1245910.889089869
349.00252765284995 1245595.6815847724
350.0022674665225 1245317.3428203363
351.00252765284995 1245037.184773238
352.0022674665225 1244809.4501049768
353.00252765284995 1244586.9759408857
354.0022674665225 1244453.203495992
355.00252765284995 1244313.013454371
356.0022674665225 1244256.3250707688
357.00252765284995 1244254.883782525
358.0022674665225 1244297.7773615234
359.00252765284995 1244364.4457672364
360.0022674665225 1244449.420610593
361.00252765284995 1244587.4643139446
362.0022674665225 1244737.7042967028
363.00252765284995 1244921.7529597234
364.0022674665225 1245091.3186704493
365.00252765284995 1245327.1778148806
366.0022674665225 1245964.9476871246
367.00252765284995 1246200.9823785615
368.0022674665225 1246458.383247446
369.00252765284995 1246721.7818476981
370.0022674665225 1247440.91788835
371.00252765284995 1247747.43735393
372.0022674665225 1248259.3121721575
373.00252765284995 1248431.0337312461
374.0022674665225 1248726.7251550294
375.00252765284995 1248252.2794187055
376.0022674665225 1247802.8508392845
377.00252765284995 1247747.6073818523
378.0022674665225 1247958.8279006197
379.00252765284995 1248073.2221857992
380.0022674665225 1248468.0624690694
381.00252765284995 1248703.0444891762
382.0022674665225 1248949.8428927397
383.00252765284995 1249276.693062563
384.0022674665225 1249378.7864224997
385.00252765284995 1249644.9593689332
386.0022674665225 1249837.2405571723
387.00252765284995 1249916.22774038
388.0022674665225 1249990.2674586822
389.00252765284995 1250030.1566309882
390.0022674665225 1249952.9141501696
391.00252765284995 1249811.5419167776
392.0022674665225 1249678.324041822
393.00252765284995 1249394.4484953887
394.0022674665225 1249175.1142226337
395.00252765284995 1248822.3412583345
396.0022674665225 1248507.1372155654
397.00252765284995 1248112.2183830596
398.0022674665225 1247769.134871369
399.00252765284995 1247318.159530647
400.0022674665225 1246956.3372261487
401.00252765284995 1246502.1478060891
402.0022674665225 1246134.2170318929
403.00252765284995 1245681.1466871905
404.0022674665225 1245324.6151645868
405.00252765284995 1244873.345671248
406.0022674665225 1244523.833220048
407.00252765284995 1244090.5402350454
408.0022674665225 1243763.0821699176
409.00252765284995 1243356.8933285975
410.0022674665225 1243074.5911456156
411.00252765284995 1242745.3056247463
412.0022674665225 1242546.0740280459
413.00252765284995 1242305.9956535015
414.0022674665225 1242205.2443193782
415.00252765284995 1242100.9878491536
416.0022674665225 1242094.922294145
417.00252765284995 1242087.352962162
418.0022674665225 1242170.5611066862
419.00252765284995 1242263.87521122
420.0022674665225 1242436.8111389643
421.00252765284995 1242588.7192283426
422.0022674665225 1242806.1056039229
423.00252765284995 1243043.9308215952
424.0022674665225 1243310.409575931
425.00252765284995 1243597.3168141288
426.0022674665225 1243914.6870100924
427.00252765284995 1244241.0081642836
428.0022674665225 1244595.2182243175
429.00252765284995 1244964.277034481
430.0022674665225 1245312.005024369
431.00252765284995 1245699.147235841
432.0022674665225 1246056.9089277217
433.00252765284995 1246432.9809004825
434.0022674665225 1246776.2771887933
435.00252765284995 1247148.1119499975
436.0022674665225 1247471.8243987542
437.00252765284995 1247795.8010826083
438.0022674665225 1248066.4144006274
439.00252765284995 1248378.2869579275
440.0022674665225 1248564.1291852347
441.00252765284995 1248820.0754610887
442.0022674665225 1248932.3752235225
443.00252765284995 1249061.6169735275
444.0022674665225 1249090.3646745565
445.00252765284995 1249089.4969793984
446.0022674665225 1249035.2958533121
447.00252765284995 1248954.227715152
448.0022674665225 1248812.7012828272
449.00252765284995 1248679.5381534852
450.0022674665225 1248538.4663211992
451.00252765284995 1248283.947708256
452.0022674665225 1248026.551233018
453.00252765284995 1247708.2925888142
454.0022674665225 1247413.9439669305
455.00252765284995 1247076.7949310862
456.0022674665225 1246799.6200140968
457.00252765284995 1246458.9175890675
458.0022674665225 1246174.439508999
459.00252765284995 1245849.5136003033
460.0022674665225 1245569.8390684617
461.00252765284995 1245254.174604441
462.0022674665225 1244966.3247764076
463.00252765284995 1244639.112602023
464.0022674665225 1244340.7680148063
465.00252765284995 1244016.5755220796
466.0022674665225 1243720.4563314465
467.00252765284995 1243352.1836525153
468.0022674665225 1243052.6622562194
469.00252765284995 1242699.940111485
470.0022674665225 1242440.105951908
471.00252765284995 1242166.892519482
472.0022674665225 1242006.0418001227
473.00252765284995 1241813.24011609
474.0022674665225 1241724.272634266
475.00252765284995 1241631.564260473
476.0022674665225 1241601.745035979
477.00252765284995 1241576.505304915
478.0022674665225 1241573.8327398456
479.00252765284995 1241573.3719845368
480.0022674665225 1241595.9217572878
481.00252765284995 1241617.8202567396
482.0022674665225 1241639.9647947827
483.00252765284995 1241659.3975267005
484.0022674665225 1241690.3390651937
485.00252765284995 1241724.3931009907
486.0022674665225 1241762.8131275994
487.00252765284995 1241794.8587718995
488.0022674665225 1241845.563753719
489.00252765284995 1241889.611672198
490.0022674665225 1241938.3917502798
491.00252765284995 1241995.8852015196
492.0022674665225 1242046.3113118375
493.00252765284995 1242235.4987578937
494.0022674665225 1242285.072105574
495.00252765284995 1242538.309774403
496.0022674665225 1242866.4478883266
497.00252765284995 1242952.5649738784
498.0022674665225 1243090.4538465263
499.00252765284995 1243284.3744816778
500.0022674665225 1243392.4176669775
501.00252765284995 1243541.1554849818
502.0022674665225 1243686.4269018539
503.00252765284995 1243839.9396349208
504.0022674665225 1243920.8199268924
505.00252765284995 1244080.3887586955
506.0022674665225 1244140.904769566
507.00252765284995 1244313.4599787518
508.0022674665225 1244380.3915381832
509.00252765284995 1244499.0578743857
510.0022674665225 1244577.5373231082
511.00252765284995 1244677.2685743861
512.0022674665224 1244694.310829387
513.00252765285 1244813.954390898
514.0022674665224 1244835.1107325265
515.00252765285 1244856.4208955914
516.0022674665224 1244872.7269331831
517.00252765285 1244876.7435005505
518.0022674665224 1244910.2348440592
519.00252765285 1244942.154258733
520.0022674665224 1244998.1546527871
521.00252765285 1245081.4594381899
522.0022674665224 1245158.1406479375
523.00252765285 1245237.7672644113
524.0022674665224 1245293.1120338659
525.00252765285 1245348.0216971245
526.0022674665224 1245394.471518527
527.00252765285 1245450.8491033784
