#####################################################################
# Alchemist log file - simulation started at: 2024-05-07T00:02+0000 #
#####################################################################
#
# seed = 15.0, nodeCount = 200, surrogateFrequency = 1, scenario = offloaded
#
# The columns have the following meaning: 
# time potential[sum] 
0.0 0.0
7.350824841925174E-4 0.0
1.0002009859118406 0.0
2.0007350824841925 0.0
3.0002009859118406 0.0
4.0007350824841925 0.0
5.000200985911841 0.0
6.0007350824841925 3994.9584368908245
7.000200985911841 3994.9584368908245
8.000735082484193 11141.02247270288
9.00020098591184 23626.435636382816
10.000735082484193 60549.60499437592
11.00020098591184 129174.42747861646
12.000735082484193 267018.6511798729
13.00020098591184 483973.7929244858
14.000735082484193 616436.0971063398
15.00020098591184 823190.6764885483
16.00073508248419 993367.6101856161
17.00020098591184 1093731.7876991278
18.00073508248419 1203615.5874417857
19.00020098591184 1219373.3190238122
20.00073508248419 1235544.4232380213
21.00020098591184 1245140.0854423293
22.00073508248419 1244928.0935404012
23.00020098591184 1244893.544563051
24.00073508248419 1244881.7171004245
25.00020098591184 1244906.198344225
26.00073508248419 1244905.1165660066
27.00020098591184 1244931.4864131901
28.00073508248419 1244936.5974110763
29.00020098591184 1244957.7045682948
30.00073508248419 1244962.9339041908
31.00020098591184 1244982.9608830158
32.00073508248419 1244988.5418059374
33.00020098591184 1245008.9608856041
34.00073508248419 1245016.4341567634
35.00020098591184 1245037.9967701028
36.00073508248419 1245043.658311646
37.00020098591184 1245064.1811118852
38.00073508248419 1245069.1613319442
39.00020098591184 1245091.6170922266
40.00073508248419 1245095.8012542054
41.00020098591184 1245117.8637442791
42.00073508248419 1245125.725908584
43.00020098591184 1245148.4495102724
44.00073508248419 1245152.875495071
45.00020098591184 1245177.6716163186
46.00073508248419 1245185.0092488662
47.00020098591184 1245209.5262214737
48.00073508248419 1245217.13954655
49.00020098591184 1245240.127633724
50.00073508248419 1245248.7480381695
51.00020098591184 1245272.7264907802
52.00073508248419 1245277.5872040847
53.00020098591184 1245301.337014252
54.00073508248419 1245304.8497485088
55.00020098591184 1244721.1475355243
56.00073508248419 1244725.0847572493
57.00020098591184 1243593.0059080254
58.00073508248419 1242281.6527073248
59.00020098591184 1242204.9400391781
60.00073508248419 1242087.3266808754
61.00020098591184 1242091.211986968
62.00073508248419 1242073.510268418
63.00020098591184 1242080.6249839142
64.0007350824842 1242065.645995153
65.00020098591185 1242078.0788501892
66.0007350824842 1242061.8447822859
67.00020098591185 1242079.576725967
68.0007350824842 1242071.1013136383
69.00020098591185 1242098.7306850587
70.0007350824842 1242103.7407917515
71.00020098591185 1242125.544003541
72.0007350824842 1242079.6657653614
73.00020098591185 1242093.0733857176
74.0007350824842 1242064.0651790262
75.00020098591185 1242068.4322302258
76.0007350824842 1242050.1849203398
77.00020098591185 1242059.2330390587
78.0007350824842 1241992.2556539301
79.00020098591185 1242004.3743711645
80.0007350824842 1241968.5290769557
81.00020098591185 1242017.878667797
82.0007350824842 1242000.9353495752
83.00020098591185 1242027.625197181
84.0007350824842 1242079.4655754988
85.00020098591185 1242094.5245471117
86.0007350824842 1242116.610760121
87.00020098591185 1242140.0959552599
88.0007350824842 1242135.0992704032
89.00020098591185 1242137.1118380497
90.0007350824842 1242098.8369837583
91.00020098591185 1242102.9351874287
92.0007350824842 1242095.2144953532
93.00020098591185 1242118.295228292
94.0007350824842 1242113.8654871613
95.00020098591185 1242145.0166658014
96.0007350824842 1242137.7387813132
97.00020098591185 1242175.6141478843
98.0007350824842 1242165.7754655103
99.00020098591185 1242203.8353805763
100.0007350824842 1242209.2079053808
101.00020098591185 1242245.49346054
102.0007350824842 1242246.4333258327
103.00020098591185 1242274.979762264
104.0007350824842 1242265.6436067694
105.00020098591185 1242289.5138148325
106.0007350824842 1242277.536335513
107.00020098591185 1242292.1088070248
108.0007350824842 1242290.0888021179
109.00020098591185 1242304.44612396
110.0007350824842 1242301.1425475199
111.00020098591185 1242322.5672371325
112.0007350824842 1242328.1325947973
113.00020098591185 1242351.4599668258
114.0007350824842 1242383.761308069
115.00020098591185 1242429.3544433652
116.0007350824842 1242473.4000734338
117.00020098591185 1242554.3889223908
118.0007350824842 1242660.6470377895
119.00020098591185 1242786.5349404344
120.0007350824842 1242921.3186908027
121.00020098591185 1243091.4167996352
122.0007350824842 1243279.0372634265
123.00020098591185 1243516.281204183
124.0007350824842 1243754.1340692355
125.00020098591185 1244005.5745762282
126.0007350824842 1244273.077906116
127.00020098591185 1244551.097864342
128.0007350824842 1244840.696795145
129.00020098591185 1245136.9829579224
130.0007350824842 1245424.0933930136
131.00020098591185 1245731.0633805816
132.0007350824842 1246035.7560714195
133.00020098591185 1246349.277509044
134.0007350824842 1246667.0564475935
135.00020098591185 1246971.2740958435
136.0007350824842 1247244.0337467901
137.00020098591185 1247534.1741112964
138.0007350824842 1247795.008690364
139.00020098591185 1248067.477958598
140.0007350824842 1248304.2655539794
141.00020098591185 1248543.2228396193
142.0007350824842 1248740.7577237235
143.00020098591185 1248917.5996928446
144.0007350824842 1249059.2062868967
145.00020098591185 1249161.1297271014
146.0007350824842 1249186.6478652288
147.00020098591185 1249186.4221051743
148.0007350824842 1249095.1280476043
149.00020098591185 1248912.1663076559
150.0007350824842 1248720.7917252933
151.00020098591185 1248381.6371359897
152.0007350824842 1248091.034589782
153.00020098591185 1247727.1766210364
154.0007350824842 1247379.8489133385
155.00020098591185 1246981.7619045328
156.0007350824842 1246602.9772038942
157.00020098591185 1246194.4066539742
158.0007350824842 1245842.1307830724
159.00020098591185 1245444.5220921282
160.0007350824842 1245086.9274593568
161.00020098591185 1244697.5941947915
162.0007350824842 1244360.176905272
163.00020098591185 1244049.2321919187
164.0007350824842 1243760.5601843053
165.00020098591185 1243494.9184397305
166.0007350824842 1243265.8899313172
167.00020098591185 1243078.7717232078
168.0007350824842 1243034.6486623478
169.00020098591185 1242927.1901728807
170.0007350824842 1242889.2661401255
171.00020098591185 1242800.6310092479
172.0007350824842 1242710.4359979194
173.00020098591185 1242603.859750847
174.0007350824842 1242550.8902086846
175.00020098591185 1242542.2865290174
176.0007350824842 1242550.7713503223
177.00020098591185 1242568.9732433043
178.0007350824842 1242595.6157671937
179.00020098591185 1242662.7981167359
180.0007350824842 1242733.1895724023
181.00020098591185 1242833.0906023479
182.0007350824842 1242928.7568246573
183.00020098591185 1243045.1517776416
184.0007350824842 1243182.215696456
185.00020098591185 1243347.1253206355
186.0007350824842 1243537.5259922831
187.00020098591185 1243745.146937469
188.0007350824842 1243988.0835437572
189.00020098591185 1244250.1680372602
190.0007350824842 1244506.4805705037
191.00020098591185 1244823.5745696342
192.0007350824842 1245149.8961800863
193.00020098591185 1245461.90423192
194.0007350824842 1245845.780894492
195.00020098591185 1246214.7352864498
196.0007350824842 1246645.0141135335
197.00020098591185 1245989.8503692646
198.0007350824842 1246396.3841740254
199.00020098591185 1246886.2216167087
200.0007350824842 1247309.9086639772
201.00020098591185 1247857.8855839744
202.0007350824842 1248314.2782676704
203.00020098591185 1248809.795030418
204.0007350824842 1249260.9408188497
205.00020098591185 1249720.3501244865
206.0007350824842 1250060.7006523272
207.00020098591185 1250424.0285688858
208.0007350824842 1250640.8535010093
209.00020098591185 1250808.3773969773
210.0007350824842 1250796.2733429894
211.00020098591185 1250771.7700465675
212.0007350824842 1250571.746159328
213.00020098591185 1250241.1287756388
214.0007350824842 1249931.2765460904
215.00020098591185 1249355.8118771717
216.0007350824842 1248917.8128858637
217.00020098591185 1248465.122128038
218.0007350824842 1247992.1992340316
219.00020098591185 1247634.3744552247
220.0007350824842 1247215.5812059676
221.00020098591185 1246864.6924785932
222.0007350824842 1246513.0774291493
223.00020098591185 1246169.6132880172
224.0007350824842 1245854.8948194662
225.00020098591185 1245499.2811623495
226.0007350824842 1245151.4983147113
227.00020098591185 1244811.316749588
228.0007350824842 1244466.5705366186
229.00020098591185 1245215.2570921304
230.0007350824842 1244891.6757349868
231.00020098591185 1244608.993433798
232.0007350824842 1244366.7061330588
233.00020098591185 1244231.8515646036
234.0007350824842 1244105.2677276698
235.00020098591185 1244104.0914509764
236.0007350824842 1244094.4948356983
237.00020098591185 1244172.4451217204
238.0007350824842 1244252.739115386
239.00020098591185 1244393.3682491037
240.0007350824842 1244547.8441273624
241.00020098591185 1244715.746292636
242.0007350824842 1244904.5545251544
243.00020098591185 1245133.8393006644
244.0007350824842 1245336.8806102418
245.00020098591185 1245550.5513859917
246.0007350824842 1245776.7695898318
247.00020098591185 1246012.4870069951
248.0007350824842 1246275.8610603765
249.00020098591185 1246537.3479114212
250.0007350824842 1246810.9611596428
251.00020098591185 1247078.87572754
252.0007350824842 1247359.5494309117
253.00020098591185 1247637.6532890683
254.0007350824842 1247922.278449231
255.00020098591185 1248203.4840360803
256.0007350824842 1248486.7993057184
257.0002009859119 1248779.5152174698
258.0007350824842 1249063.8781325293
259.0002009859119 1249338.7476912846
260.0007350824842 1249583.5027469664
261.0002009859119 1249842.7306341124
262.0007350824842 1250057.903638409
263.0002009859119 1250279.925442597
264.0007350824842 1250450.2161736
265.0002009859119 1250586.1586931471
266.0007350824842 1250668.9927901272
267.0002009859119 1250745.3329546405
268.0007350824842 1250733.1287587704
269.0002009859119 1250699.0157660036
270.0007350824842 1250586.6078299016
271.0002009859119 1250358.052780508
272.0007350824842 1250128.4629740987
273.0002009859119 1249757.2895681944
274.0007350824842 1249414.9779393123
275.0002009859119 1249009.0774354744
276.0007350824842 1248618.3470375102
277.0002009859119 1248178.7095536534
278.0007350824842 1247755.2382241595
279.0002009859119 1247315.6794136672
280.0007350824842 1246896.1223001631
281.0002009859119 1246480.0428498948
282.0007350824842 1246108.163908962
283.0002009859119 1245705.0864678198
284.0007350824842 1245369.591584453
285.0002009859119 1245029.9223630028
286.0007350824842 1244761.184025997
287.0002009859119 1244490.790052641
288.0007350824842 1244280.425832218
289.0002009859119 1244133.785016549
290.0007350824842 1244020.0567417713
291.0002009859119 1243994.261460755
292.0007350824842 1243968.3194710808
293.0002009859119 1243974.7512529271
294.0007350824842 1243985.9076183017
295.0002009859119 1244033.3843998068
296.0007350824842 1244073.6962143565
297.0002009859119 1244132.9878060524
298.0007350824842 1244175.7340992433
299.0002009859119 1244241.903204347
300.0007350824842 1244314.6468018026
301.0002009859119 1244392.2502492191
302.0007350824842 1244488.8388350175
303.0002009859119 1244590.2191859544
304.0007350824842 1244711.3397509395
305.0002009859119 1244849.2123850558
306.0007350824842 1245006.422281186
307.0002009859119 1245190.3430774794
308.0007350824842 1245397.0866253457
309.0002009859119 1245629.8449411343
310.0007350824842 1245867.7353205453
311.0002009859119 1246177.4249301504
312.0007350824842 1246451.326940766
313.0002009859119 1246823.328110939
314.0007350824842 1247174.1864603735
315.0002009859119 1247556.8572420466
316.0007350824842 1247944.2081902875
317.0002009859119 1248379.3233248421
318.0007350824842 1248769.8196973132
319.0002009859119 1249215.193150738
320.0007350824842 1249631.6333527518
321.0002009859119 1250063.448149682
322.0007350824842 1250452.4581687888
323.0002009859119 1250856.9865504645
324.0007350824842 1251179.9611441952
325.0002009859119 1251505.0563316373
326.0007350824842 1251782.2370900596
327.0002009859119 1251971.1055633237
328.0007350824842 1252091.8282570571
329.0002009859119 1252102.3471529866
330.0007350824842 1251955.7561231367
331.0002009859119 1251776.1681042039
332.0007350824842 1251536.9294551525
333.0002009859119 1251028.5243294165
334.0007350824842 1250701.900833965
335.0002009859119 1250178.5966666157
336.0007350824842 1249731.5422042934
337.0002009859119 1249412.108002924
338.0007350824842 1249045.2516022986
339.0002009859119 1248669.3241764556
340.0007350824842 1248318.8234200755
341.0002009859119 1247959.5244194812
342.0007350824842 1247629.0704859495
343.0002009859119 1247315.0068987242
344.0007350824842 1247029.1103271171
345.0002009859119 1246714.7018532886
346.0007350824842 1246440.5280523435
347.0002009859119 1246127.475968607
348.0007350824842 1245836.8882132468
349.0002009859119 1245520.0493025489
350.0007350824842 1245281.482100954
351.0002009859119 1244964.641461192
352.0007350824842 1244749.6074833027
353.0002009859119 1244510.283370338
354.0007350824842 1244376.8990373705
355.0002009859119 1244323.3896169655
356.0007350824842 1244275.7930397526
357.0002009859119 1244297.070534059
358.0007350824842 1244337.686095639
359.0002009859119 1244416.8407906042
360.0007350824842 1244528.569879826
361.0002009859119 1244664.1852758948
362.0007350824842 1244815.5055169398
363.0002009859119 1245000.331515417
364.0007350824842 1245193.7487834077
365.0002009859119 1245830.6515762522
366.0007350824842 1246061.46699676
367.0002009859119 1246340.8886947357
368.0007350824842 1247014.5716829146
369.0002009859119 1247294.8125297185
370.0007350824842 1247576.7838708006
371.0002009859119 1248121.6526741418
372.0007350824842 1248382.5046404307
373.0002009859119 1248580.0027334227
374.0007350824842 1248871.0991014708
375.0002009859119 1248427.7083317891
376.0007350824842 1247878.4756545832
377.0002009859119 1248003.6463949638
378.0007350824842 1247994.4913761565
379.0002009859119 1248282.3453922176
380.0007350824842 1248617.3019384933
381.0002009859119 1248909.849837611
382.0007350824842 1249154.7170927185
383.0002009859119 1249411.5900900364
384.0007350824842 1249554.0038483813
385.0002009859119 1249771.1660645835
386.0007350824842 1249925.911472481
387.0002009859119 1250022.4667675323
388.0007350824842 1250049.089219451
389.0002009859119 1250107.1626921454
390.0007350824842 1249992.8574823742
391.0002009859119 1249899.4936527747
392.0007350824842 1249711.9430367148
393.0002009859119 1249412.019921459
394.0007350824842 1249126.7960747916
395.0002009859119 1248769.3723922684
396.0007350824842 1248415.1012789812
397.0002009859119 1248036.2437036657
398.0007350824842 1247644.0595850472
399.0002009859119 1247243.2399272856
400.0007350824842 1246835.516889686
401.0002009859119 1246433.7575049463
402.0007350824842 1246023.528652783
403.0002009859119 1245622.833628516
404.0007350824842 1245219.8626207807
405.0002009859119 1244827.4982070536
406.0007350824842 1244434.5628896777
407.0002009859119 1244059.7983631617
408.0007350824842 1243694.126965851
409.0002009859119 1243349.5021292202
410.0007350824842 1243046.1055467336
411.0002009859119 1242759.598839904
412.0007350824842 1242508.19158305
413.0002009859119 1242323.8238591494
414.0007350824842 1242155.554139334
415.0002009859119 1242089.6985512187
416.0007350824842 1242033.733937318
417.0002009859119 1242040.290724603
418.0007350824842 1242039.9882695249
419.0002009859119 1242103.3947739569
420.0007350824842 1242192.1708115602
421.0002009859119 1242344.9686437596
422.0007350824842 1242504.7704229408
423.0002009859119 1242706.1871640312
424.0007350824842 1242896.7009255271
425.0002009859119 1243174.9912082849
426.0007350824842 1243419.0267008832
427.0002009859119 1243722.3749320058
428.0007350824842 1244015.5178973253
429.0002009859119 1244355.0883599683
430.0007350824842 1244676.3796008974
431.0002009859119 1245051.1942940734
432.0007350824842 1245377.0846844749
433.0002009859119 1245752.7294703939
434.0007350824842 1246091.1668356908
435.0002009859119 1246472.852328812
436.0007350824842 1246785.5405354311
437.0002009859119 1247156.1499823276
438.0007350824842 1247429.2039013943
439.0002009859119 1247749.8573421473
440.0007350824842 1248004.9660666143
441.0002009859119 1248269.9513584897
442.0007350824842 1248477.5435793553
443.0002009859119 1248675.985685538
444.0007350824842 1248779.201640465
445.0002009859119 1248864.7945766228
446.0007350824842 1248859.6039005169
447.0002009859119 1248851.6854503192
448.0007350824842 1248838.194314125
449.0002009859119 1248687.2692665567
450.0007350824842 1248537.4793335104
451.0002009859119 1248288.9232281179
452.0007350824842 1248030.2402283477
453.0002009859119 1247735.8844622993
454.0007350824842 1247457.7108715225
455.0002009859119 1247130.3170077114
456.0007350824842 1246838.2845526594
457.0002009859119 1246511.1492426996
458.0007350824842 1246202.0424024875
459.0002009859119 1245878.8814304934
460.0007350824842 1245577.6015779406
461.0002009859119 1245259.3240431452
462.0007350824842 1244964.9232299507
463.0002009859119 1244639.214692818
464.0007350824842 1244333.2929983407
465.0002009859119 1244013.4279431081
466.0007350824842 1243699.2807051102
467.0002009859119 1243370.7095373631
468.0007350824842 1243074.1762899326
469.0002009859119 1242749.3008659407
470.0007350824842 1242483.8349945706
471.0002009859119 1242259.1401803433
472.0007350824842 1242057.756043586
473.0002009859119 1241958.1048584427
474.0007350824842 1241817.7903065067
475.0002009859119 1241782.1978381942
476.0007350824842 1241695.0849733758
477.0002009859119 1241696.9335785178
478.0007350824842 1241662.0481160642
479.0002009859119 1241682.912770249
480.0007350824842 1241672.789385575
481.0002009859119 1241702.9389192867
482.0007350824842 1241702.8794289567
483.0002009859119 1241737.0571283351
484.0007350824842 1241740.1490597145
485.0002009859119 1241784.2912814529
486.0007350824842 1241797.5738479071
487.0002009859119 1241866.8009355236
488.0007350824842 1241875.3083923424
489.0002009859119 1241934.3150526974
490.0007350824842 1241969.1225527304
491.0002009859119 1242014.651041103
492.0007350824842 1242053.2900387754
493.0002009859119 1242211.6860477005
494.0007350824842 1242284.7215595767
495.0002009859119 1242525.6564039772
496.0007350824842 1242809.0100303348
497.0002009859119 1242938.1648043504
498.0007350824842 1243107.4481602488
499.0002009859119 1243277.5359699074
500.0007350824842 1243407.2253864035
501.0002009859119 1243517.5794344086
502.0007350824842 1243668.2822959342
503.0002009859119 1243820.997914965
504.0007350824842 1243854.9427575343
505.0002009859119 1243997.989027933
506.0007350824842 1244114.687271018
507.0002009859119 1244245.3471026677
508.0007350824842 1244318.6661174046
509.0002009859119 1244436.6884984167
510.0007350824842 1244505.282883885
511.0002009859119 1244567.2924566064
512.0007350824842 1244683.4014088733
513.0002009859119 1244732.958136592
514.0007350824842 1244782.636630437
515.0002009859119 1244823.7930708476
516.0007350824842 1244843.368746932
517.0002009859119 1244861.1203932827
518.0007350824842 1244900.2301719247
519.0002009859119 1244957.0599997703
520.0007350824842 1245000.5234508307
521.0002009859119 1245069.5753190457
522.0007350824842 1245153.1129597838
523.0002009859119 1245221.8130879635
524.0007350824842 1245297.2722733659
525.0002009859119 1245344.7299602353
526.0007350824842 1245404.9182077516
527.0002009859119 1245460.8753263124
528.0007350824842 1245505.258428249
529.0002009859119 1245548.5590824245
530.0007350824842 1245578.9605430977
531.0002009859119 1245592.0082672744
532.0007350824842 1245612.5109929733
533.0002009859119 1245602.3803780065
