#####################################################################
# Alchemist log file - simulation started at: 2024-05-07T00:25+0000 #
#####################################################################
#
# seed = 15.0, nodeCount = 200, surrogateFrequency = 20, scenario = offloaded
#
# The columns have the following meaning: 
# time potential[sum] 
0.0 0.0
7.350824841925174E-4 0.0
1.0002009859118406 0.0
2.0007350824841925 0.0
3.0002009859118406 0.0
4.0007350824841925 0.0
5.000200985911841 2405.826635453916
6.0007350824841925 3994.9584368908245
7.000200985911841 7698.980150803796
8.000735082484193 20885.132522343025
9.00020098591184 34890.99546024115
10.000735082484193 82595.06965104914
11.00020098591184 170504.97992649808
12.000735082484193 329770.8903170036
13.00020098591184 544590.5080789903
14.000735082484193 724341.9078502727
15.00020098591184 893613.3037306458
16.00073508248419 1067023.6948103444
17.00020098591184 1172509.0261372193
18.00073508248419 1219433.1739905616
19.00020098591184 1225141.152033704
20.00073508248419 1234929.136589547
21.00020098591184 1244963.3571253272
22.00073508248419 1244916.3227074558
23.00020098591184 1244882.0978961848
24.00073508248419 1244894.116038659
25.00020098591184 1244905.3036712608
26.00073508248419 1244912.5010619916
27.00020098591184 1244936.4513217264
28.00073508248419 1244942.1184991489
29.00020098591184 1244962.4484067673
30.00073508248419 1244968.407926079
31.00020098591184 1244987.362558197
32.00073508248419 1244993.865475985
33.00020098591184 1245013.007679508
34.00073508248419 1245020.6805693228
35.00020098591184 1245039.2440794788
36.00073508248419 1245043.818711877
37.00020098591184 1245060.5443200602
38.00073508248419 1245062.7859943286
39.00020098591184 1245080.9645634522
40.00073508248419 1245079.434465576
41.00020098591184 1245095.3171849556
42.00073508248419 1245103.912198781
43.00020098591184 1245122.304413252
44.00073508248419 1245125.8796776063
45.00020098591184 1245147.915908275
46.00073508248419 1245154.0710956738
47.00020098591184 1245173.1529538254
48.00073508248419 1245183.1693246113
49.00020098591184 1245200.420593453
50.00073508248419 1245206.2577637646
51.00020098591184 1245224.546430653
52.00073508248419 1245236.9166221432
53.00020098591184 1245256.6011631947
54.00073508248419 1245264.9890489033
55.00020098591184 1244680.9812150837
56.00073508248419 1244697.4567865392
57.00020098591184 1242822.7613002867
58.00073508248419 1242201.4130745814
59.00020098591184 1242178.3126987075
60.00073508248419 1242073.2996718984
61.00020098591184 1242071.497119796
62.00073508248419 1242069.6077028913
63.00020098591184 1242070.1683929195
64.0007350824842 1242069.7092852516
65.00020098591185 1242076.6907262884
66.0007350824842 1242066.8011018694
67.00020098591185 1242076.9959906582
68.0007350824842 1242082.389129139
69.00020098591185 1242107.7273767283
70.0007350824842 1242115.9237180226
71.00020098591185 1242099.3810432565
72.0007350824842 1242079.767070108
73.00020098591185 1242089.3758201278
74.0007350824842 1242074.678895615
75.00020098591185 1242065.3993376808
76.0007350824842 1242067.9829013431
77.00020098591185 1242027.803217701
78.0007350824842 1241998.3754842887
79.00020098591185 1241997.0756459548
80.0007350824842 1241968.777470659
81.00020098591185 1242014.2900373405
82.0007350824842 1242001.902411619
83.00020098591185 1242073.2195569468
84.0007350824842 1242097.092589678
85.00020098591185 1242106.818757806
86.0007350824842 1242131.7071905923
87.00020098591185 1242138.4239776945
88.0007350824842 1242151.2788141929
89.00020098591185 1242113.7907050129
90.0007350824842 1242108.774244731
91.00020098591185 1242110.5183335403
92.0007350824842 1242113.8470291311
93.00020098591185 1242119.88598252
94.0007350824842 1242133.3388663928
95.00020098591185 1242138.3222356532
96.0007350824842 1242145.149793875
97.00020098591185 1242160.0379979822
98.0007350824842 1242150.7964171588
99.00020098591185 1242180.3633469483
100.0007350824842 1242186.3596495083
101.00020098591185 1242200.385174588
102.0007350824842 1242208.6195263588
103.00020098591185 1242215.9995535796
104.0007350824842 1242218.6967993327
105.00020098591185 1242225.7633617541
106.0007350824842 1242224.2030202462
107.00020098591185 1242232.8800997268
108.0007350824842 1242232.3644903596
109.00020098591185 1242243.960347105
110.0007350824842 1242244.7763337048
111.00020098591185 1242263.9995671797
112.0007350824842 1242265.2351631972
113.00020098591185 1242296.7719039954
114.0007350824842 1242330.740787731
115.00020098591185 1242384.9757861572
116.0007350824842 1242436.7504478344
117.00020098591185 1242532.6485652507
118.0007350824842 1242637.5865505838
119.00020098591185 1242776.5432742967
120.0007350824842 1242925.5285858302
121.00020098591185 1243127.6184239963
122.0007350824842 1243306.122113644
123.00020098591185 1243561.6724592675
124.0007350824842 1243809.812590565
125.00020098591185 1244079.5388280412
126.0007350824842 1244355.9725699006
127.00020098591185 1244657.4486106846
128.0007350824842 1244941.4102444067
129.00020098591185 1245253.7777248558
130.0007350824842 1245545.8887071256
131.00020098591185 1245870.1246352217
132.0007350824842 1246172.9025994837
133.00020098591185 1246490.382532788
134.0007350824842 1246814.8460163262
135.00020098591185 1247090.2595229065
136.0007350824842 1247389.0549017526
137.00020098591185 1247668.6348069212
138.0007350824842 1247933.9699999907
139.00020098591185 1248197.4716166726
140.0007350824842 1248429.9794222263
141.00020098591185 1248656.2764809802
142.0007350824842 1248835.9735125613
143.00020098591185 1249006.0540749389
144.0007350824842 1249132.2355390808
145.00020098591185 1249203.688156817
146.0007350824842 1249231.4850438947
147.00020098591185 1249184.5426429086
148.0007350824842 1249051.3852031797
149.00020098591185 1248888.2289171002
150.0007350824842 1248616.5957320533
151.00020098591185 1248316.3921233239
152.0007350824842 1247973.5929784612
153.00020098591185 1247623.0463264356
154.0007350824842 1247219.6029116793
155.00020098591185 1246834.5792744078
156.0007350824842 1246408.3625398932
157.00020098591185 1246046.741688817
158.0007350824842 1245634.469239045
159.00020098591185 1245258.5553942944
160.0007350824842 1244864.7102219136
161.00020098591185 1244502.845204239
162.0007350824842 1244131.5556647382
163.00020098591185 1243820.3863703965
164.0007350824842 1243544.2123270556
165.00020098591185 1243287.332343998
166.0007350824842 1243066.4555147246
167.00020098591185 1242939.793568346
168.0007350824842 1242791.8585264517
169.00020098591185 1242824.6899612513
170.0007350824842 1242766.4588793109
171.00020098591185 1242693.7554762817
172.0007350824842 1242712.3338117923
173.00020098591185 1242696.7662649213
174.0007350824842 1242657.735508973
175.00020098591185 1242683.0880627285
176.0007350824842 1242705.1974561359
177.00020098591185 1242758.1714452687
178.0007350824842 1242817.963386119
179.00020098591185 1242900.6375536174
180.0007350824842 1242982.6065940724
181.00020098591185 1243104.3096854137
182.0007350824842 1243221.9819302463
183.00020098591185 1243362.6320278912
184.0007350824842 1243508.3349503698
185.00020098591185 1243694.7082355197
186.0007350824842 1243885.9061219522
187.00020098591185 1244126.9820788444
188.0007350824842 1244367.609599875
189.00020098591185 1244628.3524474762
190.0007350824842 1244900.0376158163
191.00020098591185 1245242.6199475662
192.0007350824842 1245565.1219764377
193.00020098591185 1245928.6756266223
194.0007350824842 1246310.9435418153
195.00020098591185 1246692.983589493
196.0007350824842 1247118.3712184604
197.00020098591185 1246465.7104149451
198.0007350824842 1246905.434168316
199.00020098591185 1247327.1257466562
200.0007350824842 1247802.3546148187
201.00020098591185 1248241.3207730886
202.0007350824842 1248705.1299494433
203.00020098591185 1249069.8879917823
204.0007350824842 1249483.950889152
205.00020098591185 1249835.2861363627
206.0007350824842 1250139.730661212
207.00020098591185 1250422.2427608613
208.0007350824842 1250587.7750327736
209.00020098591185 1250632.2705213453
210.0007350824842 1250642.2145162777
211.00020098591185 1250588.6250860447
212.0007350824842 1250310.8663819344
213.00020098591185 1250059.3994998415
214.0007350824842 1249661.4166698498
215.00020098591185 1249202.5118073653
216.0007350824842 1248746.5029036882
217.00020098591185 1248290.868338674
218.0007350824842 1247850.4268073644
219.00020098591185 1247464.4984884937
220.0007350824842 1247067.3392140176
221.00020098591185 1246721.958329105
222.0007350824842 1246365.907338674
223.00020098591185 1246016.7230265276
224.0007350824842 1245681.6330883047
225.00020098591185 1245302.732492487
226.0007350824842 1244976.2112945535
227.00020098591185 1244573.6408841247
228.0007350824842 1244249.1405403095
229.00020098591185 1244952.6712037574
230.0007350824842 1244645.3622633405
231.00020098591185 1244324.9998127609
232.0007350824842 1244113.9269700688
233.00020098591185 1243948.1215140645
234.0007350824842 1243870.4541369027
235.00020098591185 1243860.9714988617
236.0007350824842 1243880.9662719793
237.00020098591185 1243945.7517914497
238.0007350824842 1244067.8142569824
239.00020098591185 1244228.0378979316
240.0007350824842 1244400.7229637925
241.00020098591185 1244611.7959089358
242.0007350824842 1244820.8720634712
243.00020098591185 1245075.3233535024
244.0007350824842 1245319.0031611847
245.00020098591185 1245584.3235975245
246.0007350824842 1245850.6756825694
247.00020098591185 1246121.6206236721
248.0007350824842 1246389.041162413
249.00020098591185 1246658.47121685
250.0007350824842 1246931.4612419875
251.00020098591185 1247210.0139633075
252.0007350824842 1247493.638291877
253.00020098591185 1247776.158959342
254.0007350824842 1248058.2443455018
255.00020098591185 1248343.2799176779
256.0007350824842 1248631.0461877694
257.0002009859119 1248924.867662113
258.0007350824842 1249210.5272034826
259.0002009859119 1249471.4277137702
260.0007350824842 1249725.2017428044
261.0002009859119 1249970.6666371373
262.0007350824842 1250189.7661886138
263.0002009859119 1250379.7138455426
264.0007350824842 1250549.9211474727
265.0002009859119 1250648.9973856779
266.0007350824842 1250729.2976224027
267.0002009859119 1250772.9443999864
268.0007350824842 1250759.4713870524
269.0002009859119 1250695.6231177521
270.0007350824842 1250525.8734459707
271.0002009859119 1250307.6158674061
272.0007350824842 1250010.5639267627
273.0002009859119 1249661.7185686037
274.0007350824842 1249275.113655113
275.0002009859119 1248889.2519146267
276.0007350824842 1248456.648788283
277.0002009859119 1248017.6009667055
278.0007350824842 1247581.5365114948
279.0002009859119 1247145.0741768111
280.0007350824842 1246707.8787695928
281.0002009859119 1246311.3842819552
282.0007350824842 1245926.37350553
283.0002009859119 1245553.4988061422
284.0007350824842 1245222.7042334448
285.0002009859119 1244929.380909796
286.0007350824842 1244678.862908857
287.0002009859119 1244469.7081362773
288.0007350824842 1244322.2060289767
289.0002009859119 1244211.4811011308
290.0007350824842 1244138.988127697
291.0002009859119 1244127.0203984377
292.0007350824842 1244139.7123024724
293.0002009859119 1244159.1444812354
294.0007350824842 1244208.4196928276
295.0002009859119 1244253.4554030413
296.0007350824842 1244319.6626211551
297.0002009859119 1244372.397947912
298.0007350824842 1244439.2262989518
299.0002009859119 1244523.0201748013
300.0007350824842 1244597.002854014
301.0002009859119 1244685.6538174485
302.0007350824842 1244790.2983018875
303.0002009859119 1244904.1800102752
304.0007350824842 1245041.117879644
305.0002009859119 1245192.7683797053
306.0007350824842 1245350.3628603835
307.0002009859119 1245554.660529744
308.0007350824842 1245751.782671482
309.0002009859119 1245988.9782846943
310.0007350824842 1246231.2359060731
311.0002009859119 1246518.2672643964
312.0007350824842 1246831.6033017975
313.0002009859119 1247166.9733620542
314.0007350824842 1247512.5862743692
315.0002009859119 1247862.1796923564
316.0007350824842 1248254.305041632
317.0002009859119 1248639.4861330213
318.0007350824842 1249039.437331315
319.0002009859119 1249427.7903561366
320.0007350824842 1249830.3968282342
321.0002009859119 1250201.55205974
322.0007350824842 1250561.499881069
323.0002009859119 1250899.9563222234
324.0007350824842 1251195.3503481501
325.0002009859119 1251498.823663753
326.0007350824842 1251702.164612061
327.0002009859119 1251840.920516597
328.0007350824842 1251937.8040452178
329.0002009859119 1251883.3123359748
330.0007350824842 1251730.6022394144
331.0002009859119 1251559.6098048482
332.0007350824842 1251209.310229861
333.0002009859119 1250920.3942999244
334.0007350824842 1250489.716344582
335.0002009859119 1250033.2740454776
336.0007350824842 1249605.393229646
337.0002009859119 1249285.5835020845
338.0007350824842 1248890.0850560495
339.0002009859119 1248537.9299137834
340.0007350824842 1248174.4758607578
341.0002009859119 1247832.5850542625
342.0007350824842 1247461.8453239044
343.0002009859119 1247173.3307062883
344.0007350824842 1246841.6243603418
345.0002009859119 1246542.8861919134
346.0007350824842 1246231.1643414304
347.0002009859119 1245926.3789227398
348.0007350824842 1245594.7273604032
349.0002009859119 1245325.4565870338
350.0007350824842 1245019.1861960618
351.0002009859119 1244782.7206630078
352.0007350824842 1244540.8730490254
353.0002009859119 1244357.869957346
354.0007350824842 1244244.7135682022
355.0002009859119 1244219.613773217
356.0007350824842 1244195.1849418785
357.0002009859119 1244236.0161652043
358.0007350824842 1244310.057907243
359.0002009859119 1244426.8980646648
360.0007350824842 1244556.255186866
361.0002009859119 1244696.178372038
362.0007350824842 1244873.6881787628
363.0002009859119 1245057.5396255283
364.0007350824842 1245268.4330327665
365.0002009859119 1245909.734249505
366.0007350824842 1246168.2080926364
367.0002009859119 1246867.76289786
368.0007350824842 1247165.7746197097
369.0002009859119 1247415.3368705034
370.0007350824842 1247719.3640930369
371.0002009859119 1248248.7184962558
372.0007350824842 1248377.735573403
373.0002009859119 1248693.2593587118
374.0007350824842 1249021.8810155436
375.0002009859119 1248235.1250787708
376.0007350824842 1247745.230826213
377.0002009859119 1248000.0234436372
378.0007350824842 1248124.6968265134
379.0002009859119 1248407.5517133435
380.0007350824842 1248776.4708736686
381.0002009859119 1248994.4369291582
382.0007350824842 1249239.7019202295
383.0002009859119 1249474.9914168585
384.0007350824842 1249610.6246501363
385.0002009859119 1249842.2693353603
386.0007350824842 1249981.7055473134
387.0002009859119 1250010.5357038302
388.0007350824842 1250052.2811268296
389.0002009859119 1250064.4614212955
390.0007350824842 1249958.1445892882
391.0002009859119 1249823.953784206
392.0007350824842 1249606.7476657513
393.0002009859119 1249296.377086896
394.0007350824842 1248986.9534798176
395.0002009859119 1248624.3550532546
396.0007350824842 1248260.1417432385
397.0002009859119 1247863.111796962
398.0007350824842 1247470.3070747838
399.0002009859119 1247055.898079964
400.0007350824842 1246660.5771200096
401.0002009859119 1246243.6324558095
402.0007350824842 1245849.3098219533
403.0002009859119 1245431.9890336024
404.0007350824842 1245049.499368528
405.0002009859119 1244637.6031806592
406.0007350824842 1244269.85153493
407.0002009859119 1243883.4527683058
408.0007350824842 1243529.203839098
409.0002009859119 1243182.754182719
410.0007350824842 1242901.505001694
411.0002009859119 1242612.0051779735
412.0007350824842 1242398.5231870192
413.0002009859119 1242212.0450755444
414.0007350824842 1242093.3410853841
415.0002009859119 1242022.2882449792
416.0007350824842 1242016.9397278777
417.0002009859119 1242003.5367856817
418.0007350824842 1242050.1667550919
419.0002009859119 1242108.3331498757
420.0007350824842 1242240.4023627627
421.0002009859119 1242371.3372728387
422.0007350824842 1242582.313593794
423.0002009859119 1242739.1231236865
424.0007350824842 1242983.4966167253
425.0002009859119 1243233.8598513873
426.0007350824842 1243532.722577559
427.0002009859119 1243812.0501147727
428.0007350824842 1244147.1250648857
429.0002009859119 1244468.934924137
430.0007350824842 1244839.1473976572
431.0002009859119 1245162.927510107
432.0007350824842 1245549.6639311886
433.0002009859119 1245877.7699481074
434.0007350824842 1246274.5608258103
435.0002009859119 1246586.7352372685
436.0007350824842 1246971.8327686791
437.0002009859119 1247256.6801979614
438.0007350824842 1247605.4313418183
439.0002009859119 1247872.540375656
440.0007350824842 1248169.4583635756
441.0002009859119 1248400.3899015114
442.0007350824842 1248620.8167059522
443.0002009859119 1248768.677061943
444.0007350824842 1248876.0511142127
445.0002009859119 1248919.9600693602
446.0007350824842 1248896.06275071
447.0002009859119 1248908.6999065506
448.0007350824842 1248841.6932642576
449.0002009859119 1248691.9922369374
450.0007350824842 1248492.3348968446
451.0002009859119 1248260.9055797304
452.0007350824842 1247956.3489092404
453.0002009859119 1247676.5335193935
454.0007350824842 1247349.3397736151
455.0002009859119 1247047.899883274
456.0007350824842 1246712.146813318
457.0002009859119 1246396.8919338477
458.0007350824842 1246064.0629421442
459.0002009859119 1245749.6396793819
460.0007350824842 1245406.8553694892
461.0002009859119 1245090.3726828254
462.0007350824842 1244761.2866926158
463.0002009859119 1244427.6720883488
464.0007350824842 1244112.574232157
465.0002009859119 1243786.6196129683
466.0007350824842 1243446.2180833644
467.0002009859119 1243129.8625147443
468.0007350824842 1242805.9755736503
469.0002009859119 1242498.70054506
470.0007350824842 1242242.0865624663
471.0002009859119 1242027.57613055
472.0007350824842 1241887.5940450989
473.0002009859119 1241766.7697640117
474.0007350824842 1241698.416873097
475.0002009859119 1241642.8792091454
476.0007350824842 1241642.183946393
477.0002009859119 1241628.2789082741
478.0007350824842 1241645.6429119464
479.0002009859119 1241663.973607974
480.0007350824842 1241693.0928590333
481.0002009859119 1241715.6981316386
482.0007350824842 1241751.383907941
483.0002009859119 1241774.555214386
484.0007350824842 1241816.210143653
485.0002009859119 1241844.1308924165
486.0007350824842 1241893.9076261837
487.0002009859119 1241920.0650040514
488.0007350824842 1241962.069953287
489.0002009859119 1242003.2411895841
490.0007350824842 1242044.5356938215
491.0002009859119 1242087.1709673111
492.0007350824842 1242247.454314605
493.0002009859119 1242306.6054335837
494.0007350824842 1242373.4669825935
495.0002009859119 1242649.9239515762
496.0007350824842 1242923.6854734651
497.0002009859119 1242984.478955264
498.0007350824842 1243173.9192952102
499.0002009859119 1243354.248443695
500.0007350824842 1243456.0884261103
501.0002009859119 1243591.6596237984
502.0007350824842 1243719.2953684812
503.0002009859119 1243834.1811714552
504.0007350824842 1243886.4295918527
505.0002009859119 1244055.15375329
506.0007350824842 1244180.0248667637
507.0002009859119 1244296.6742457272
508.0007350824842 1244378.347928729
509.0002009859119 1244473.9792265873
510.0007350824842 1244553.6976692136
511.0002009859119 1244627.3487282305
512.0007350824842 1244728.467517657
513.0002009859119 1244758.01699853
514.0007350824842 1244822.4600719505
515.0002009859119 1244832.241485737
516.0007350824842 1244864.703208093
517.0002009859119 1244873.3532612901
518.0007350824842 1244956.2663430648
519.0002009859119 1244990.2752743475
520.0007350824842 1245055.6374606595
521.0002009859119 1245135.011547724
522.0007350824842 1245215.7321915126
523.0002009859119 1245275.7575108341
524.0007350824842 1245357.892532153
525.0002009859119 1245397.809229871
526.0007350824842 1245461.3052357705
527.0002009859119 1245505.2391218925
528.0007350824842 1245549.4068353015
529.0002009859119 1245584.5199809428
530.0007350824842 1245609.987939397
531.0002009859119 1245638.7025217242
532.0007350824842 1245637.7727254576
533.0002009859119 1245625.9774404825
