#####################################################################
# Alchemist log file - simulation started at: 2024-05-06T23:59+0000 #
#####################################################################
#
# seed = 6.0, nodeCount = 200, surrogateFrequency = 1, scenario = offloaded
#
# The columns have the following meaning: 
# time potential[sum] 
0.0 0.0
0.0025627219120618605 0.0
1.0088613461039424 0.0
2.002562721912062 551.5317110262947
3.0088613461039424 3994.9584368908245
4.002562721912062 3994.9584368908245
5.008861346103942 7274.403479518219
6.002562721912062 29662.00551019782
7.008861346103942 39739.06252298861
8.002562721912062 97459.16537889544
9.008861346103942 171334.86276198184
10.002562721912062 326243.5409598559
11.008861346103942 539364.7168953496
12.002562721912062 761962.862169936
13.008861346103942 976733.0218541126
14.002562721912062 1095005.793695201
15.008861346103942 1157255.147786296
16.002562721912064 1208558.5935272968
17.00886134610394 1225007.8543125996
18.002562721912064 1224225.0991114925
19.00886134610394 1224051.3635054883
20.002562721912064 1244928.881832159
21.00886134610394 1244933.5466037027
22.002562721912064 1244821.5410155514
23.00886134610394 1244827.4635528673
24.002562721912064 1244843.16831219
25.00886134610394 1244849.0486648418
26.002562721912064 1244872.4857127818
27.00886134610394 1244878.8912827678
28.002562721912064 1244903.1222308557
29.00886134610394 1244909.613490753
30.002562721912064 1244929.149423588
31.00886134610394 1244935.9452180364
32.002562721912064 1244954.2048543424
33.00886134610394 1244960.5969034038
34.002562721912064 1244980.8409483493
35.00886134610394 1244986.7544445381
36.002562721912064 1245009.3917533513
37.00886134610394 1245009.792553883
38.002562721912064 1245031.1730318202
39.00886134610394 1245032.5600096132
40.002562721912064 1245052.6549763654
41.00886134610394 1245048.282467526
42.002562721912064 1245069.2334896824
43.00886134610394 1245068.9151128929
44.002562721912064 1245094.7239854198
45.00886134610394 1245088.1911709986
46.002562721912064 1245113.3005889028
47.00886134610394 1245117.9363126366
48.002562721912064 1245141.1755087422
49.00886134610394 1245144.2254623848
50.002562721912064 1245168.7781038627
51.00886134610394 1245169.2816014972
52.002562721912064 1245191.5369952405
53.00886134610394 1245201.8910275723
54.002562721912064 1244621.345307303
55.00886134610394 1244623.846815286
56.002562721912064 1244580.5800112234
57.00886134610394 1243352.3537235204
58.002562721912064 1242161.2817888572
59.00886134610394 1242153.4113102034
60.002562721912064 1242056.7012308608
61.00886134610394 1242049.63188061
62.002562721912064 1242047.7364495236
63.00886134610394 1242046.489267916
64.00256272191206 1242050.9578637048
65.00886134610394 1242047.0911901328
66.00256272191206 1242050.753844557
67.00886134610394 1242056.6785701138
68.00256272191206 1242063.4214412735
69.00886134610394 1242072.7501377275
70.00256272191206 1242087.1933721805
71.00886134610394 1242104.0369208993
72.00256272191206 1242126.094155347
73.00886134610394 1242102.0342865456
74.00256272191206 1242102.435229431
75.00886134610394 1242076.4316727903
76.00256272191206 1242077.0870208666
77.00886134610394 1242057.2615382958
78.00256272191206 1242068.038314203
79.00886134610394 1242010.9058156444
80.00256272191206 1241990.3790030656
81.00886134610394 1241977.2905562888
82.00256272191206 1242003.5631697509
83.00886134610394 1242011.2854620987
84.00256272191206 1242034.1757642971
85.00886134610394 1242064.4416312561
86.00256272191206 1242103.0958141976
87.00886134610394 1242104.3406275455
88.00256272191206 1242135.523152051
89.00886134610394 1242125.4409438423
90.00256272191206 1242150.3286662933
91.00886134610394 1242119.3519285494
92.00256272191206 1242103.9783225316
93.00886134610394 1242104.0156683389
94.00256272191206 1242123.3829114947
95.00886134610394 1242115.3860375753
96.00256272191206 1242140.507042071
97.00886134610394 1242134.7396205482
98.00256272191206 1242161.0706001336
99.00886134610394 1242143.676155052
100.00256272191206 1242162.9208642787
101.00886134610394 1242164.6807496406
102.00256272191206 1242198.7353240938
103.00886134610394 1242184.9093909948
104.00256272191206 1242217.2521346018
105.00886134610394 1242205.9004377283
106.00256272191206 1242232.1162707952
107.00886134610394 1242223.6060199062
108.00256272191206 1242236.991722048
109.00886134610394 1242238.6264329897
110.00256272191206 1242260.1940483048
111.00886134610394 1242255.9910459907
112.00256272191206 1242289.6518409452
113.00886134610394 1242323.3568647231
114.00256272191206 1242366.5676411171
115.00886134610394 1242422.750004252
116.00256272191206 1242506.7864849744
117.00886134610394 1242611.5666175387
118.00256272191206 1242734.4972795413
119.00886134610394 1242852.988898647
120.00256272191206 1243037.4688722454
121.00886134610394 1243223.3833534955
122.00256272191206 1243454.8528885196
123.00886134610394 1243693.3367570352
124.00256272191206 1243964.5829902522
125.00886134610394 1244228.2192372107
126.00256272191206 1244519.4448677725
127.00886134610394 1244809.2583786268
128.00256272191206 1245117.9738126423
129.00886134610394 1245417.9431137624
130.00256272191206 1245735.5278317665
131.00886134610394 1246030.8504583642
132.00256272191206 1246371.0002771132
133.00886134610394 1246663.722359447
134.00256272191206 1246980.5537655808
135.00886134610394 1247270.3432659719
136.00256272191206 1247572.1288522116
137.00886134610394 1247802.808476844
138.00256272191206 1248055.5392815198
139.00886134610394 1248287.893336225
140.00256272191206 1248503.7395614854
141.00886134610394 1248706.3870584092
142.00256272191206 1248880.676136527
143.00886134610394 1249028.944840985
144.00256272191206 1249135.7365336663
145.00886134610394 1249172.7574481464
146.00256272191206 1249183.2444673486
147.00886134610394 1249109.1452450072
148.00256272191206 1248965.9580519255
149.00886134610394 1248768.489415295
150.00256272191206 1248494.9625562108
151.00886134610394 1248187.940053897
152.00256272191206 1247856.9078597084
153.00886134610394 1247480.8000904461
154.00256272191206 1247100.722123895
155.00886134610394 1246708.4682713384
156.00256272191206 1246310.9498238044
157.00886134610394 1245923.09634885
158.00256272191206 1245515.8876372627
159.00886134610394 1245155.4051582979
160.00256272191206 1244792.0437810959
161.00886134610394 1244416.717896374
162.00256272191206 1244062.4242412508
163.00886134610394 1243753.4272075184
164.00256272191206 1243494.311081518
165.00886134610394 1243243.6661201185
166.00256272191206 1243093.8764149842
167.00886134610394 1242944.1288072674
168.00256272191206 1242843.3707879258
169.00886134610394 1242896.7640085605
170.00256272191206 1242864.3542450445
171.00886134610394 1242849.5337588114
172.00256272191206 1242949.9422975006
173.00886134610394 1242978.369140422
174.00256272191206 1242974.4668364094
175.00886134610394 1243030.1561224374
176.00256272191206 1243063.7644589555
177.00886134610394 1243126.8062661386
178.00256272191206 1243196.4888206122
179.00886134610394 1243299.8717375007
180.00256272191206 1243403.6610927412
181.00886134610394 1243523.3184327013
182.00256272191206 1243661.249198548
183.00886134610394 1243810.7506273654
184.00256272191206 1243992.3583172762
185.00886134610394 1244181.9962891375
186.00256272191206 1244416.8067445077
187.00886134610394 1244642.1507788473
188.00256272191206 1244905.399430414
189.00886134610394 1245184.6481870515
190.00256272191206 1245490.0265036125
191.00886134610394 1245804.1786126704
192.00256272191206 1246132.7386118511
193.00886134610394 1246466.16682523
194.00256272191206 1246823.9289161991
195.00886134610394 1247178.9103015838
196.00256272191206 1247559.2834823537
197.00886134610394 1247918.7497352457
198.00256272191206 1247261.1126133597
199.00886134610394 1247617.4264097735
200.00256272191206 1248003.4923416134
201.00886134610394 1248332.464275061
202.00256272191206 1248680.7515616931
203.00886134610394 1249016.4379323735
204.00256272191206 1249340.2382958285
205.00886134610394 1249554.4902830275
206.00256272191206 1249812.194326896
207.00886134610394 1249943.8017455598
208.00256272191206 1250058.5544154246
209.00886134610394 1250052.009531028
210.00256272191206 1249993.0525475258
211.00886134610394 1249830.9125439003
212.00256272191206 1249660.0826763776
213.00886134610394 1249395.6340732456
214.00256272191206 1249100.0255473196
215.00886134610394 1248730.40417831
216.00256272191206 1248420.950467284
217.00886134610394 1248038.4938377987
218.00256272191206 1247689.0662481163
219.00886134610394 1247325.7591680211
220.00256272191206 1246983.1445548632
221.00886134610394 1246626.43208137
222.00256272191206 1246270.8603732046
223.00886134610394 1245958.1269208041
224.00256272191206 1245599.9722118783
225.00886134610394 1245258.052242518
226.00256272191206 1244905.8673615318
227.00886134610394 1244544.5472903675
228.00256272191206 1244190.9226159595
229.00886134610394 1243861.1926880109
230.00256272191206 1244629.7224803716
231.00886134610394 1244308.8708788916
232.00256272191206 1244090.8509034025
233.00886134610394 1243916.8190074565
234.00256272191206 1243859.9235215813
235.00886134610394 1243830.9635576585
236.00256272191206 1243889.1594476392
237.00886134610394 1243966.4001246078
238.00256272191206 1244135.9120023318
239.00886134610394 1244282.7068728963
240.00256272191206 1244498.272442927
241.00886134610394 1244692.761519242
242.00256272191206 1244972.9717054178
243.00886134610394 1245215.3351465496
244.00256272191206 1245486.8300626862
245.00886134610394 1245747.945052604
246.00256272191206 1246059.9160300277
247.00886134610394 1246349.6739311297
248.00256272191206 1246634.6884280972
249.00886134610394 1246905.6332741557
250.00256272191206 1247183.1445430303
251.00886134610394 1247449.3824255907
252.00256272191206 1247726.5914780272
253.00886134610394 1248001.2952875623
254.00256272191206 1248280.3575998156
255.00886134610394 1248553.6204138682
256.00256272191206 1248826.4195456558
257.0088613461039 1249096.6600743714
258.00256272191206 1249350.50369864
259.0088613461039 1249614.3703393333
260.00256272191206 1249869.0574405787
261.0088613461039 1250083.8218800887
262.00256272191206 1250283.5159134415
263.0088613461039 1250471.0441348548
264.00256272191206 1250615.111666508
265.0088613461039 1250735.6605911402
266.00256272191206 1250784.4772445294
267.0088613461039 1250782.7664565535
268.00256272191206 1250732.531427362
269.0088613461039 1250621.2348385726
270.00256272191206 1250429.951031172
271.0088613461039 1250196.8399691375
272.00256272191206 1249860.4689639085
273.0088613461039 1249509.1332615134
274.00256272191206 1249118.9567536893
275.0088613461039 1248724.6478572695
276.00256272191206 1248296.6529559277
277.0088613461039 1247872.9590123945
278.00256272191206 1247438.6279368873
279.0088613461039 1247026.4246494246
280.00256272191206 1246615.6517799944
281.0088613461039 1246239.7723904005
282.00256272191206 1245857.2594557307
283.0088613461039 1245543.4962138904
284.00256272191206 1245222.5931036845
285.0088613461039 1244981.3204889465
286.00256272191206 1244791.8869320373
287.0088613461039 1244657.2917611848
288.00256272191206 1244578.8606755913
289.0088613461039 1244544.8260778817
290.00256272191206 1244522.7292928982
291.0088613461039 1244542.4417371931
292.00256272191206 1244551.4714169279
293.0088613461039 1244615.9223146613
294.00256272191206 1244649.3705877217
295.0088613461039 1244712.0582998528
296.00256272191206 1244773.0019935565
297.0088613461039 1244861.7427161513
298.00256272191206 1244920.8759532229
299.0088613461039 1245002.6068066328
300.00256272191206 1245093.9556831548
301.0088613461039 1245196.9185998044
302.00256272191206 1245308.433263878
303.0088613461039 1245437.391558503
304.00256272191206 1245602.4096834704
305.0088613461039 1245766.340325353
306.00256272191206 1245965.060998784
307.0088613461039 1246168.3714314112
308.00256272191206 1246400.3002274043
309.0088613461039 1246635.0956430086
310.00256272191206 1246918.7302436614
311.0088613461039 1247176.1146834828
312.00256272191206 1247486.4269399948
313.0088613461039 1247805.6416377919
314.00256272191206 1248142.3583801286
315.0088613461039 1248441.7263227536
316.00256272191206 1248788.969857668
317.0088613461039 1249102.0022271054
318.00256272191206 1249444.585254628
319.0088613461039 1249760.3939642082
320.00256272191206 1250089.8412403052
321.0088613461039 1250362.3471775453
322.00256272191206 1250627.780288401
323.0088613461039 1250860.4677854802
324.00256272191206 1251076.6329096053
325.0088613461039 1251228.2953171667
326.00256272191206 1251311.6855009776
327.0088613461039 1251378.2759976482
328.00256272191206 1251390.6437042905
329.0088613461039 1251276.311888258
330.00256272191206 1251134.5041614026
331.0088613461039 1250928.2964484056
332.00256272191206 1250663.0596291688
333.0088613461039 1250353.5563854922
334.00256272191206 1250055.1816048967
335.0088613461039 1249729.265148016
336.00256272191206 1249394.981279066
337.0088613461039 1249069.3270143038
338.00256272191206 1248725.5706202234
339.0088613461039 1248432.0384163312
340.00256272191206 1248106.8092795
341.0088613461039 1247788.4725225675
342.00256272191206 1247447.2974884745
343.0088613461039 1247116.839653627
344.00256272191206 1246746.4320133608
345.0088613461039 1246460.1141626707
346.00256272191206 1246140.962539182
347.0088613461039 1245841.1200514613
348.00256272191206 1245535.876348693
349.0088613461039 1245274.9557106888
350.00256272191206 1244967.3160505844
351.0088613461039 1244727.4034697837
352.00256272191206 1244493.4579304934
353.0088613461039 1244364.2030693404
354.00256272191206 1244287.397197439
355.0088613461039 1244235.5232175589
356.00256272191206 1244249.1264805826
357.0088613461039 1244315.0347058612
358.00256272191206 1244404.9151860308
359.0088613461039 1244521.54684113
360.00256272191206 1244667.7781462588
361.0088613461039 1244831.2340480662
362.00256272191206 1245016.2992089007
363.0088613461039 1245225.3028968342
364.00256272191206 1245438.712241587
365.0088613461039 1245659.1196854378
366.00256272191206 1246337.2557931952
367.0088613461039 1246568.188276802
368.00256272191206 1246801.8600510715
369.0088613461039 1247515.3225871806
370.00256272191206 1247850.39995713
371.0088613461039 1248104.2473376626
372.00256272191206 1248641.7413890008
373.0088613461039 1248925.73664966
374.00256272191206 1249241.5772974782
375.0088613461039 1249368.8675443751
376.00256272191206 1249693.9963642103
377.0088613461039 1249792.9020656256
378.00256272191206 1249023.760222082
379.0088613461039 1248636.9203231898
380.00256272191206 1248735.7438470344
381.0088613461039 1248993.931467268
382.00256272191206 1249209.321520694
383.0088613461039 1249405.8879263664
384.00256272191206 1249587.5892748458
385.0088613461039 1249738.287754923
386.00256272191206 1249901.8576072813
387.0088613461039 1249959.6596426517
388.00256272191206 1249999.9459334144
389.0088613461039 1249911.9245908346
390.00256272191206 1249794.2140660016
391.0088613461039 1249589.6684535013
392.00256272191206 1249357.4122100654
393.0088613461039 1249044.6315162524
394.00256272191206 1248767.061361078
395.0088613461039 1248373.8037410656
396.00256272191206 1248017.2894009827
397.0088613461039 1247615.542920373
398.00256272191206 1247222.2384554192
399.0088613461039 1246820.714884342
400.00256272191206 1246414.1238372715
401.0088613461039 1246012.5221709972
402.00256272191206 1245609.3602722152
403.0088613461039 1245212.1653464504
404.00256272191206 1244818.1571459062
405.0088613461039 1244433.961099406
406.00256272191206 1244069.916057033
407.0088613461039 1243693.2129335855
408.00256272191206 1243362.4609131343
409.0088613461039 1243044.4676274247
410.00256272191206 1242762.0867596373
411.0088613461039 1242497.272368549
412.00256272191206 1242336.7808014913
413.0088613461039 1242152.9380861432
414.00256272191206 1242096.826749187
415.0088613461039 1242035.3382773683
416.00256272191206 1242036.8273003437
417.0088613461039 1242048.7391198662
418.00256272191206 1242152.460493476
419.0088613461039 1242223.3321301292
420.00256272191206 1242379.7731505556
421.0088613461039 1242511.208135103
422.00256272191206 1242720.421051313
423.0088613461039 1242894.8014524484
424.00256272191206 1243167.866154892
425.0088613461039 1243431.0698933906
426.00256272191206 1243729.4991999608
427.0088613461039 1244002.0404815304
428.00256272191206 1244354.0146726354
429.0088613461039 1244675.5337389177
430.00256272191206 1245030.8673918135
431.0088613461039 1245350.3286208091
432.00256272191206 1245735.218641193
433.0088613461039 1246072.6077140037
434.00256272191206 1246433.1686641143
435.0088613461039 1246759.9117395768
436.00256272191206 1247120.0410468543
437.0088613461039 1247412.9115427586
438.00256272191206 1247710.7895789864
439.0088613461039 1247968.4473209642
440.00256272191206 1248230.8639744238
441.0088613461039 1248464.4337367304
442.00256272191206 1248637.9468829092
443.0088613461039 1248785.9809207018
444.00256272191206 1248876.762629711
445.0088613461039 1248894.5748219928
446.00256272191206 1248888.711053309
447.0088613461039 1248825.9931485015
448.00256272191206 1248687.3497295454
449.0088613461039 1248528.3139013285
450.00256272191206 1248361.710530691
451.0088613461039 1248160.1392572832
452.00256272191206 1247860.0346962675
453.0088613461039 1247569.1046777526
454.00256272191206 1247219.5283886485
455.0088613461039 1246892.0426724118
456.00256272191206 1246561.8024139393
457.0088613461039 1246260.9590613383
458.00256272191206 1245939.4003532892
459.0088613461039 1245632.3568916596
460.00256272191206 1245310.397981347
461.0088613461039 1245008.162891224
462.00256272191206 1244654.061134894
463.0088613461039 1244358.6221699917
464.00256272191206 1244021.0751253387
465.0088613461039 1243699.1955199023
466.00256272191206 1243378.988456208
467.0088613461039 1243091.7058526499
468.00256272191206 1242753.298385901
469.0088613461039 1242466.363535355
470.00256272191206 1242198.4965026479
471.0088613461039 1241945.8420617152
472.00256272191206 1241817.4155091108
473.0088613461039 1241678.7655788213
474.00256272191206 1241609.7604393573
475.0088613461039 1241538.459798412
476.00256272191206 1241530.4205565026
477.0088613461039 1241521.7603241955
478.00256272191206 1241537.3826481292
479.0088613461039 1241542.683424123
480.00256272191206 1241576.2574174232
481.0088613461039 1241600.4111701362
482.00256272191206 1241636.7287936301
483.0088613461039 1241664.9593044166
484.00256272191206 1241719.110507195
485.0088613461039 1241747.3354968168
486.00256272191206 1241803.2250808736
487.0088613461039 1241837.091906898
488.00256272191206 1241888.1890555185
489.0088613461039 1241922.5857796744
490.00256272191206 1241977.394084129
491.0088613461039 1242012.6371648395
492.00256272191206 1242069.2970675016
493.0088613461039 1242247.1759287198
494.00256272191206 1242306.0946888397
495.0088613461039 1242421.5786362235
496.00256272191206 1242734.4818595843
497.0088613461039 1242964.7247751525
498.00256272191206 1243069.9201420934
499.0088613461039 1243237.1838132695
500.00256272191206 1243399.4245678524
501.0088613461039 1243579.0692036694
502.00256272191206 1243721.1011316977
503.0088613461039 1243832.4095432723
504.00256272191206 1243912.1344738626
505.0088613461039 1244001.527071191
506.00256272191206 1244175.1822653513
507.0088613461039 1244248.765236317
508.00256272191206 1244363.1753785221
509.0088613461039 1244405.3096649337
510.00256272191206 1244546.4903488061
511.0088613461039 1244557.1957644105
512.002562721912 1244715.4224649866
513.0088613461039 1244733.0419936634
514.002562721912 1244806.324282251
515.0088613461039 1244795.6858103683
516.002562721912 1244880.298553129
517.0088613461039 1244903.8376457978
518.002562721912 1244958.7840564547
519.0088613461039 1245008.038838742
520.002562721912 1245087.278381113
521.0088613461039 1245151.3429675957
522.002562721912 1245216.0387850127
523.0088613461039 1245292.6250879338
524.002562721912 1245368.4471218921
525.0088613461039 1245417.9040928434
