#####################################################################
# Alchemist log file - simulation started at: 2024-05-07T00:05+0000 #
#####################################################################
#
# seed = 3.0, nodeCount = 200, surrogateFrequency = 10, scenario = offloaded
#
# The columns have the following meaning: 
# time potential[sum] 
0.0 0.0
1.6359619213666133E-4 0.0
1.0000467756939382 0.0
2.0001635961921376 7565.970809399944
3.000046775693938 14730.005943577933
4.000163596192139 14730.005943577933
5.000046775693939 35570.6044625844
6.000163596192132 97603.20826103474
7.000046775693939 182955.18791534175
8.000163596192126 323219.0607280217
9.000046775693939 545461.388733437
10.000163596192118 700417.2577177539
11.000046775693939 874915.4738138507
12.000163596192111 1012736.3879796654
13.000046775693939 1122899.0052057127
14.000163596192104 1210738.2767177487
15.000046775693939 1216640.4720418395
16.0001635961921 1224437.035250362
17.00004677569394 1235692.306788437
18.000163596192127 1246364.20934003
19.00004677569394 1245618.3807840855
20.000163596192156 1244843.4999575727
21.00004677569394 1244842.2200657136
22.000163596192184 1244847.1351968348
23.00004677569394 1244859.3732055638
24.000163596192213 1244871.572345831
25.00004677569394 1244888.2909755511
26.00016359619224 1244896.273694992
27.00004677569394 1244919.3033657442
28.00016359619227 1244925.59648416
29.00004677569394 1244945.329981237
30.000163596192298 1244952.4099408065
31.00004677569394 1244970.1159428465
32.00016359619232 1244976.4949897712
33.00004677569394 1244995.0757101653
34.00016359619235 1245002.9136031768
35.00004677569394 1245022.0591520807
36.00016359619238 1245029.2675643913
37.00004677569394 1245045.751151227
38.00016359619241 1245050.6717501062
39.00004677569394 1245062.4568374066
40.000163596192436 1245068.1537474105
41.00004677569394 1245080.6593682077
42.000163596192465 1245087.6242031797
43.00004677569394 1245104.0896036865
44.00016359619249 1245106.368974332
45.00004677569394 1245126.64542468
46.00016359619252 1245129.1122207348
47.00004677569394 1245151.4519308053
48.00016359619255 1245154.432221411
49.00004677569394 1245177.9945832281
50.00016359619258 1245180.077378353
51.00004677569394 1245203.4977720508
52.00016359619261 1245205.336342949
53.00004677569394 1245225.7002665899
54.000163596192635 1245240.40864805
55.00004677569394 1244649.9119559035
56.000163596192664 1244660.8517286803
57.00004677569394 1243997.7452162222
58.00016359619269 1242149.6368233426
59.00004677569394 1242159.6196972765
60.00016359619272 1242041.905110378
61.00004677569394 1242052.4335104497
62.00016359619275 1242036.3344113205
63.00004677569394 1242053.0072769285
64.00016359619278 1242049.7810087549
65.00004677569393 1242063.6413668543
66.00016359619266 1242044.287032198
67.00004677569393 1242072.742164769
68.00016359619255 1242069.832194487
69.00004677569393 1242089.4148640186
70.00016359619244 1242109.5392543983
71.00004677569393 1242109.3086030018
72.00016359619232 1242061.5530904867
73.00004677569393 1242074.7774491066
74.00016359619221 1242064.8226809057
75.00004677569393 1242058.6038522124
76.0001635961921 1242055.673739001
77.00004677569393 1242037.7852827895
78.00016359619198 1241997.213438446
79.00004677569393 1241986.2731089762
80.00016359619187 1241948.288369183
81.00004677569393 1241992.414991417
82.00016359619175 1241979.959307872
83.00004677569393 1242015.3413543627
84.00016359619164 1242082.6618972088
85.00004677569393 1242075.0567779203
86.00016359619153 1242128.3243821305
87.00004677569393 1242134.687883889
88.00016359619141 1242134.274038586
89.00004677569393 1242130.7305247777
90.0001635961913 1242086.7334459666
91.00004677569393 1242100.7996247075
92.00016359619119 1242094.5128510694
93.00004677569393 1242118.3134042036
94.00016359619107 1242121.4734584948
95.00004677569393 1242142.240859575
96.00016359619096 1242138.1972484866
97.00004677569393 1242160.991216721
98.00016359619084 1242153.6520418131
99.00004677569393 1242178.2979158638
100.00016359619073 1242188.3272936048
101.00004677569393 1242205.8992745695
102.00016359619062 1242211.8738857794
103.00004677569393 1242225.4449726022
104.0001635961905 1242214.9361164565
105.00004677569393 1242230.0660149388
106.00016359619039 1242222.6777969569
107.00004677569393 1242246.1647122672
108.00016359619028 1242238.5138073568
109.00004677569393 1242259.1659959336
110.00016359619016 1242254.7456954543
111.00004677569393 1242277.370669886
112.00016359619005 1242312.2620847656
113.00004677569393 1242347.334971887
114.00016359618994 1242406.2315789834
115.00004677569393 1242493.0653821228
116.00016359618982 1242603.157511756
117.00004677569393 1242704.626553866
118.00016359618971 1242862.9961557507
119.00004677569393 1243042.9471553992
120.0001635961896 1243235.8785332306
121.00004677569393 1243461.372239789
122.00016359618948 1243723.4190471435
123.00004677569393 1243965.8140797259
124.00016359618937 1244245.5274588566
125.00004677569393 1244537.9876237044
126.00016359618925 1244836.5202426058
127.00004677569393 1245130.3085942378
128.00016359618914 1245438.7521440317
129.00004677569393 1245733.0401729504
130.00016359618903 1246056.6127574216
131.00004677569393 1246372.2414424
132.0001635961889 1246706.0971589913
133.00004677569393 1247005.088369993
134.0001635961888 1247321.633358332
135.00004677569393 1247595.9454915307
136.00016359618868 1247859.81025424
137.00004677569393 1248112.5994374256
138.00016359618857 1248340.0449289363
139.00004677569393 1248574.1710981766
140.00016359618846 1248780.619064211
141.00004677569393 1248934.6939609996
142.00016359618834 1249115.4021654841
143.00004677569393 1249225.3515362176
144.00016359618823 1249301.258736513
145.00004677569393 1249319.7708276547
146.00016359618812 1249275.0348942499
147.00004677569393 1249134.1516666966
148.000163596188 1248993.809105505
149.00004677569393 1248703.064452538
150.0001635961879 1248467.1953904238
151.00004677569393 1248102.3506793953
152.00016359618778 1247793.836966854
153.00004677569393 1247376.7666451319
154.00016359618766 1247029.4918563222
155.00004677569393 1246604.3197216261
156.00016359618755 1246238.2939932796
157.00004677569393 1245821.7025611254
158.00016359618743 1245496.8844770403
159.00004677569393 1245074.2451857424
160.00016359618732 1244741.561332444
161.00004677569393 1244343.2628365103
162.0001635961872 1244041.0578636655
163.00004677569393 1243654.2278914908
164.0001635961871 1243462.0053784756
165.00004677569393 1243191.4580175923
166.00016359618698 1242986.3835958824
167.00004677569393 1242866.7992374713
168.00016359618687 1242749.4029684043
169.00004677569393 1242653.3881125345
170.00016359618675 1242679.8749782157
171.00004677569393 1242613.869265296
172.00016359618664 1242650.2998275403
173.00004677569393 1242655.6192569013
174.00016359618652 1242681.122818419
175.00004677569393 1242696.8389063203
176.0001635961864 1242755.5335148668
177.00004677569393 1242830.2084801893
178.0001635961863 1242918.1243669314
179.00004677569393 1243011.0425791238
180.00016359618618 1243131.5176441572
181.00004677569393 1243255.400272994
182.00016359618607 1243413.343541003
183.00004677569393 1243584.894547053
184.00016359618596 1243792.0023717282
185.00004677569393 1243991.534907971
186.00016359618584 1244237.0581649372
187.00004677569393 1244497.5673524041
188.00016359618573 1244805.146116663
189.00004677569393 1245102.0603986557
190.00016359618562 1245449.5059324934
191.00004677569393 1245762.2923534317
192.0001635961855 1246152.618711523
193.00004677569393 1246531.8910104039
194.0001635961854 1246936.7068057926
195.00004677569393 1247356.1293206916
196.00016359618527 1247767.6446166087
197.00004677569393 1247148.3044259225
198.00016359618516 1247559.4051424004
199.00004677569393 1248039.7916121627
200.00016359618505 1248404.6777179202
201.00004677569393 1248869.4713478303
202.00016359618493 1249239.1670769332
203.00004677569393 1249657.4866894376
204.00016359618482 1249958.523981052
205.00004677569393 1250302.7173203707
206.0001635961847 1250492.8209442704
207.00004677569393 1250669.2422573245
208.0001635961846 1250687.3335211156
209.00004677569393 1250741.6785282604
210.00016359618448 1250578.034362909
211.00004677569393 1250308.5674708032
212.00016359618436 1250095.995748957
213.00004677569393 1249618.9898681673
214.00016359618425 1249260.3846958515
215.00004677569393 1248787.92278744
216.00016359618414 1248324.8642105383
217.00004677569393 1247935.6902806011
218.00016359618402 1247586.4962863266
219.00004677569393 1247238.6969548126
220.0001635961839 1246878.1812837126
221.00004677569393 1246549.4056810276
222.0001635961838 1246201.965712864
223.00004677569393 1245863.515348518
224.00016359618368 1245550.9258790193
225.00004677569393 1245221.2332395406
226.00016359618357 1244855.7948348667
227.00004677569393 1244513.434842282
228.00016359618346 1244171.958230189
229.00004677569393 1243785.4294791764
230.00016359618334 1243464.7055010619
231.00004677569393 1244251.96994441
232.00016359618323 1244021.781182928
233.00004677569393 1243930.6099509944
234.0001635961831 1243879.0991956764
235.00004677569393 1243912.769613864
236.000163596183 1243992.8560552401
237.00004677569393 1244127.1216832271
238.0001635961829 1244281.4619285727
239.00004677569393 1244508.840316787
240.00016359618277 1244715.1377341966
241.00004677569393 1244983.8698113712
242.00016359618266 1245213.6512197356
243.00004677569393 1245492.7007078207
244.00016359618255 1245739.2124426865
245.00004677569393 1246047.207679241
246.00016359618243 1246339.64770685
247.00004677569393 1246627.7942352141
248.00016359618232 1246905.7176183127
249.00004677569393 1247187.7685136981
250.0001635961822 1247454.2881297735
251.00004677569393 1247750.1339591637
252.0001635961821 1248005.422237829
253.00004677569393 1248294.0125376508
254.00016359618198 1248554.936870728
255.00004677569393 1248843.9135257558
256.0001635961819 1249093.3953639306
257.00004677569393 1249377.9441282796
258.00016359618235 1249622.9871984415
259.00004677569393 1249885.4227504318
260.0001635961828 1250092.0833868992
261.00004677569393 1250320.7404854419
262.00016359618326 1250510.7238786274
263.00004677569393 1250660.0155883771
264.0001635961837 1250797.701731435
265.00004677569393 1250892.08046757
266.00016359618417 1250866.9142458446
267.00004677569393 1250885.9580904152
268.0001635961846 1250787.1555353508
269.00004677569393 1250618.8663229807
270.0001635961851 1250421.0759716444
271.00004677569393 1250091.183222927
272.00016359618553 1249780.4025656348
273.00004677569393 1249390.2815368774
274.000163596186 1249017.9892094508
275.00004677569393 1248590.276632225
276.00016359618644 1248197.20813178
277.00004677569393 1247763.116610514
278.0001635961869 1247351.7781485263
279.00004677569393 1246912.370562551
280.00016359618735 1246506.9509220968
281.00004677569393 1246116.7939121288
282.0001635961878 1245732.1425194214
283.00004677569393 1245349.780058301
284.00016359618826 1245056.6487604324
285.00004677569393 1244740.2598165225
286.0001635961887 1244519.3621660036
287.00004677569393 1244355.7465665475
288.00016359618917 1244213.246420757
289.00004677569393 1244187.795071506
290.0001635961896 1244140.6122525122
291.00004677569393 1244153.7795459903
292.0001635961901 1244173.7638586042
293.00004677569393 1244227.6099060175
294.00016359619053 1244275.316353877
295.00004677569393 1244368.0760690407
296.000163596191 1244419.0124622537
297.00004677569393 1244511.2150324162
298.00016359619144 1244582.5212185222
299.00004677569393 1244684.3306028182
300.0001635961919 1244765.926303077
301.00004677569393 1244877.1989503058
302.00016359619235 1245007.1071878755
303.00004677569393 1245165.8803220545
304.0001635961928 1245335.7934532894
305.00004677569393 1245528.3389911137
306.00016359619326 1245737.750512921
307.00004677569393 1245967.5686407678
308.0001635961937 1246222.918564127
309.00004677569393 1246499.4526145277
310.00016359619417 1246801.0224428787
311.00004677569393 1247119.2269243158
312.0001635961946 1247446.5200010673
313.00004677569393 1247810.2123064485
314.0001635961951 1248160.0619576618
315.00004677569393 1248569.7108171273
316.00016359619553 1248939.2947729954
317.00004677569393 1249338.6833193167
318.000163596196 1249716.9395572532
319.00004677569393 1250122.8325567767
320.00016359619644 1250449.662355352
321.00004677569393 1250810.943332677
322.0001635961969 1251094.7029655536
323.00004677569393 1251439.592138682
324.00016359619735 1251646.4396012833
325.00004677569393 1251841.0744824128
326.0001635961978 1251971.1466664714
327.00004677569393 1252059.9839309698
328.00016359619826 1251986.1956335302
329.00004677569393 1251910.454528378
330.0001635961987 1251694.8718088653
331.00004677569393 1251312.245393326
332.0001635961992 1251010.1298735435
333.00004677569393 1250541.9315568355
334.0001635961996 1250095.171234789
335.00004677569393 1249722.089797405
336.0001635962001 1249333.2024172575
337.00004677569393 1249014.650264675
338.00016359620054 1248671.5096668368
339.00004677569393 1248341.5935113847
340.000163596201 1248041.6459064123
341.00004677569393 1247701.557972042
342.00016359620145 1247367.7046237928
343.00004677569393 1247045.6040825187
344.0001635962019 1246717.5246305552
345.00004677569393 1246418.7116409093
346.00016359620236 1246115.574635452
347.00004677569393 1245844.6264971956
348.0001635962028 1245523.725705704
349.00004677569393 1245242.47129443
350.00016359620327 1244981.5951390334
351.00004677569393 1244691.811404635
352.0001635962037 1244471.8301683562
353.00004677569393 1244309.1228073873
354.0001635962042 1244212.878786645
355.00004677569393 1244180.7785878207
356.00016359620463 1244163.1905948948
357.00004677569393 1244232.94375163
358.0001635962051 1244299.3740731694
359.00004677569393 1244422.2596552363
360.00016359620554 1244539.0929478223
361.00004677569393 1244712.9266816995
362.000163596206 1244873.3901227785
363.00004677569393 1245079.239451149
364.00016359620645 1245289.8261525799
365.00004677569393 1245521.2975215516
366.0001635962069 1245738.7253776996
367.00004677569393 1246411.0626628743
368.00016359620736 1246655.9288693184
369.00004677569393 1246946.2101320503
370.0001635962078 1247720.6530297727
371.00004677569393 1247971.0278977638
372.00016359620827 1248511.443232729
373.00004677569393 1248821.6437309904
374.0001635962087 1248982.1858578797
375.00004677569393 1249257.9506064947
376.0001635962092 1248760.2769063136
377.00004677569393 1248287.2930845155
378.00016359620963 1248224.1999802943
379.00004677569393 1248354.314839994
380.0001635962101 1248538.934353749
381.00004677569393 1248820.618106144
382.00016359621054 1249057.6960081814
383.00004677569393 1249252.8635978329
384.000163596211 1249458.1260660954
385.00004677569393 1249625.916348979
386.00016359621145 1249781.8398097823
387.00004677569393 1249876.756169753
388.0001635962119 1249967.849101425
389.00004677569393 1249915.4066728652
390.00016359621236 1249832.5079794244
391.00004677569393 1249626.6099998336
392.0001635962128 1249485.0964670018
393.00004677569393 1249165.7006406735
394.00016359621327 1248919.4791468775
395.00004677569393 1248557.2408166076
396.0001635962137 1248215.6557587946
397.00004677569393 1247813.7179985333
398.0001635962142 1247451.634788172
399.00004677569393 1247015.3387064063
400.00016359621463 1246637.6488661452
401.00004677569393 1246202.1507298874
402.0001635962151 1245827.8581852198
403.00004677569393 1245394.0506510364
404.00016359621554 1245023.4854187237
405.00004677569393 1244607.7616696502
406.000163596216 1244246.9039219313
407.00004677569393 1243846.2451047224
408.00016359621645 1243526.6320030696
409.00004677569393 1243145.9750340646
410.0001635962169 1242896.7178597713
411.00004677569393 1242604.3712413497
412.00016359621736 1242406.6222924108
413.00004677569393 1242238.3555538857
414.0001635962178 1242151.975922518
415.00004677569393 1242095.7040821111
416.0001635962183 1242097.1995287973
417.00004677569393 1242160.1996138876
418.0001635962187 1242252.6568006212
419.00004677569393 1242338.0111808989
420.0001635962192 1242531.110930806
421.00004677569393 1242732.2627281041
422.00016359621964 1242933.2733377246
423.00004677569393 1243162.2868537768
424.0001635962201 1243446.4641728257
425.00004677569393 1243722.6849468653
426.00016359622055 1244032.6580131748
427.00004677569393 1244370.9190819322
428.000163596221 1244712.1486787132
429.00004677569393 1245071.7241055702
430.00016359622146 1245402.978877719
431.00004677569393 1245778.0652918261
432.0001635962219 1246129.629227541
433.00004677569393 1246495.945425019
434.00016359622236 1246840.332177198
435.00004677569393 1247205.0533182458
436.0001635962228 1247507.0203151149
437.00004677569393 1247825.9882019588
438.0001635962233 1248089.656249271
439.00004677569393 1248362.1604203226
440.00016359622373 1248566.1413905951
441.00004677569393 1248766.382536674
442.0001635962242 1248892.7122971339
443.00004677569393 1248989.1432932517
444.00016359622464 1249005.5184960992
445.00004677569393 1249005.5108279316
446.0001635962251 1248927.4844461966
447.00004677569393 1248812.6905235425
448.00016359622555 1248659.3473655412
449.00004677569393 1248441.3103941935
450.000163596226 1248270.5396262717
451.00004677569393 1248029.886576489
452.00016359622646 1247757.787785628
453.00004677569393 1247445.3430173453
454.0001635962269 1247135.7214491577
455.00004677569393 1246798.4572540016
456.00016359622737 1246491.5221110329
457.00004677569393 1246163.650299091
458.0001635962278 1245869.9342651279
459.00004677569393 1245540.104966229
460.0001635962283 1245253.3773176945
461.00004677569393 1244930.2120379806
462.00016359622873 1244636.1340992793
463.00004677569393 1244315.5718092492
464.0001635962292 1244002.7684381343
465.00004677569393 1243706.2688906784
466.00016359622964 1243360.5516529528
467.00004677569393 1243032.517415671
468.0001635962301 1242764.1574152962
469.00004677569393 1242399.2020317763
470.00016359623055 1242188.7390068304
471.00004677569393 1241966.4385612495
472.000163596231 1241774.601595798
473.00004677569393 1241642.6195307258
474.00016359623146 1241584.3922958924
475.00004677569393 1241550.9640747493
476.0001635962319 1241541.5287801123
477.00004677569393 1241555.067584825
478.00016359623237 1241567.0751262973
479.00004677569393 1241597.2550418715
480.0001635962328 1241623.686171207
481.00004677569393 1241657.2466552025
482.0001635962333 1241704.9218456927
483.00004677569393 1241741.8874057613
484.00016359623373 1241783.1988710954
485.00004677569393 1241818.5898237745
486.0001635962342 1241867.7556718132
487.00004677569393 1241901.5452553446
488.00016359623464 1241950.7192837042
489.00004677569393 1241991.4300769307
490.0001635962351 1242036.5279849018
491.00004677569393 1242082.1212232425
492.00016359623555 1242130.9928908665
493.00004677569393 1242207.9929092175
494.000163596236 1242374.507210524
495.00004677569393 1242436.1739765408
496.00016359623646 1242613.294381897
497.00004677569393 1242875.8088010899
498.0001635962369 1243055.493595166
499.00004677569393 1243176.5238364448
500.00016359623737 1243377.5567930716
501.00004677569393 1243471.861577638
502.0001635962378 1243558.4120368378
503.00004677569393 1243760.131144607
504.0001635962383 1243877.1438942484
505.00004677569393 1243945.6444294674
506.00016359623874 1244137.4127876316
507.00004677569393 1244211.157885634
508.0001635962392 1244314.8967737644
509.00004677569393 1244413.89172217
510.00016359623964 1244525.7168638636
511.00004677569393 1244588.795625212
512.0001635962401 1244700.1249602966
513.0000467756939 1244765.5408262797
514.0001635962406 1244805.1895056567
515.0000467756939 1244853.6230112612
516.000163596241 1244917.6342835794
517.0000467756939 1244933.6317383756
518.0001635962415 1244996.8285146856
519.0000467756939 1245041.9908287486
520.0001635962419 1245097.2451419807
521.0000467756939 1245148.732520454
522.0001635962424 1245229.1658420532
523.0000467756939 1245292.5049554054
524.0001635962428 1245359.7836293108
525.0000467756939 1245406.2424102991
