#####################################################################
# Alchemist log file - simulation started at: 2024-05-06T23:54+0000 #
#####################################################################
#
# seed = 5.0, nodeCount = 100, surrogateFrequency = 10, scenario = offloaded
#
# The columns have the following meaning: 
# time potential[sum] 
0.0 0.0
0.006273073581679167 0.0
1.0079321761742954 0.0
2.006273073581679 0.0
3.0079321761742954 0.0
4.00627307358168 0.0
5.007932176174295 1854.2949244276213
6.00627307358168 3443.4267258645295
7.007932176174295 7014.439098373649
8.00627307358168 13735.849316140304
9.007932176174295 16629.501950643935
10.00627307358168 31934.615693276337
11.007932176174295 69393.04750985107
12.00627307358168 113226.73398602661
13.007932176174295 209095.56716857312
14.00627307358168 300643.1750289171
15.007932176174295 355007.9335572254
16.00627307358168 417573.96736847126
17.007932176174293 498046.4060765563
18.00627307358168 561104.5105373918
19.007932176174293 576656.5263415816
20.00627307358168 584676.9626484854
21.007932176174293 601551.3875316002
22.00627307358168 601549.1469616854
23.007932176174293 601559.4070239465
24.00627307358168 601558.1169416322
25.007932176174293 601586.148036337
26.00627307358168 601584.7509522762
27.007932176174293 601611.8127378557
28.00627307358168 601611.1157014112
29.007932176174293 601643.6146424158
30.00627307358168 601643.079251278
31.007932176174293 601671.737375882
32.00627307358168 601671.6112824865
33.00793217617429 601699.6555723521
34.00627307358168 601698.8329821368
35.00793217617429 601724.9388954287
36.00627307358168 601724.930732765
37.00793217617429 601746.4200539081
38.00627307358168 601747.5155580284
39.00793217617429 601768.0906341379
40.00627307358168 601767.3373271398
41.00793217617429 601791.493780459
42.00627307358168 601783.5004232844
43.00793217617429 601809.1897410308
44.00627307358168 601802.5313502533
45.00793217617429 601828.6389940305
46.00627307358168 601824.505945382
47.00793217617429 601850.591394883
48.00627307358168 601845.4993964612
49.00793217617429 601871.3126681087
50.00627307358168 601866.5967688934
51.00793217617429 601893.2963174928
52.00627307358168 601889.130358216
53.00793217617429 601915.0946922678
54.00627307358168 601914.9663057132
55.00793217617429 601952.1682009496
56.00627307358168 601945.8128968471
57.00793217617429 601988.5845348645
58.00627307358168 601978.2024472503
59.00793217617429 602013.6428346946
60.00627307358168 602029.5036134741
61.00793217617429 602070.1696981982
62.00627307358168 602072.4352625466
63.00793217617429 602118.1631207034
64.00627307358168 602128.269678178
65.0079321761743 602169.5730654651
66.00627307358168 602175.550836023
67.0079321761743 602204.5748390553
68.00627307358168 602222.2034868331
69.0079321761743 602252.5156516226
70.00627307358168 602257.5737238829
71.0079321761743 602274.8303883963
72.00627307358168 602278.1240956624
73.0079321761743 602291.1910625106
74.00627307358168 602285.7306036962
75.0079321761743 602305.1544531453
76.00627307358168 602299.1096257562
77.0079321761743 602304.9939793277
78.00627307358168 602307.4177278554
79.0079321761743 602329.2692368219
80.00627307358168 602327.6949884256
81.0079321761743 602346.6623305129
82.00627307358168 602348.7103135682
83.0079321761743 602363.8244845417
84.00627307358168 602365.9061152219
85.0079321761743 602353.0846900005
86.00627307358168 602355.183522422
87.0079321761743 602351.38605732
88.00627307358168 602357.9693310558
89.0079321761743 602366.9271280032
90.00627307358168 602372.0205828004
91.0079321761743 602392.9431293759
92.00627307358168 602397.5546668536
93.0079321761743 602415.2645634708
94.00627307358168 602423.9526410936
95.0079321761743 602436.8848777
96.00627307358168 602447.1110268467
97.0079321761743 602452.1668800734
98.00627307358168 602459.0408366609
99.0079321761743 602473.8742790327
100.00627307358168 602471.0203318674
101.0079321761743 602482.1818442286
102.00627307358168 602482.5943520162
103.0079321761743 602491.7005070563
104.00627307358168 602496.6644304
105.0079321761743 602504.9785151827
106.00627307358168 602503.448264842
107.0079321761743 602509.5750835164
108.00627307358168 602515.0758075856
109.0079321761743 602522.1766618727
110.00627307358168 602527.1066690682
111.0079321761743 602541.8258422978
112.00627307358168 602563.8476810353
113.0079321761743 602595.2673429579
114.00627307358168 602639.2741593802
115.0079321761743 602696.9834390733
116.00627307358168 602759.8541347055
117.0079321761743 602856.0657893647
118.00627307358168 602957.2142710562
119.0079321761743 603079.7271774655
120.00627307358168 603182.9847313908
121.0079321761743 603314.6645832465
122.00627307358168 603446.5111064216
123.0079321761743 603589.9141611188
124.00627307358168 603732.7965792447
125.0079321761743 603893.9007695297
126.00627307358168 604033.2375957896
127.0079321761743 604208.4843301217
128.00627307358167 604338.8112700464
129.00793217617428 604513.1639180401
130.00627307358167 604662.6584501971
131.00793217617428 604831.3665515749
132.00627307358167 604970.7094582767
133.00793217617428 605146.38791127
134.00627307358167 605276.7976890821
135.00793217617428 605445.286765266
136.00627307358167 605542.7850002884
137.00793217617428 605685.2245777646
138.00627307358167 605788.7829975084
139.00793217617428 605903.8409307792
140.00627307358167 605970.7672535628
141.00793217617428 606063.2691723177
142.00627307358167 606091.0948673289
143.00793217617428 606147.3726873974
144.00627307358167 606133.3689177342
145.00793217617428 606141.1975615881
146.00627307358167 606070.7101293474
147.00793217617428 606018.9167023351
148.00627307358167 605898.532773128
149.00793217617428 605779.2242257295
150.00627307358167 605598.0788720029
151.00793217617428 605447.4914627231
152.00627307358167 605244.6905027329
153.00793217617428 605069.5750136896
154.00627307358167 604860.8604994913
155.00793217617428 604675.8910475142
156.00627307358167 604472.1060283481
157.00793217617428 604289.1844594014
158.00627307358167 604097.4911497011
159.00793217617428 603913.6722723133
160.00627307358167 603725.8203729535
161.00793217617428 603557.786872988
162.00627307358167 603397.481551325
163.00793217617428 603258.1820644713
164.00627307358167 603134.1790675537
165.00793217617428 603608.3845114512
166.00627307358167 603514.7462631807
167.00793217617428 603443.5210039977
168.00627307358167 603380.2669526082
169.00793217617428 603911.0759765813
170.00627307358167 603869.6048377772
171.00793217617428 603839.2731758101
172.00627307358167 603819.5674662383
173.00793217617428 603792.162663578
174.00627307358167 603780.7780642784
175.00793217617428 603786.9296183654
176.00627307358167 603803.4095141813
177.00793217617428 603829.3248944468
178.00627307358167 603870.9228076817
179.00793217617428 603918.7672511146
180.00627307358167 603997.3445896537
181.00793217617428 604060.2720323721
182.00627307358167 604153.6760612458
183.00793217617428 604242.7491250006
184.00627307358167 604355.6017571641
185.00793217617428 604487.2711937155
186.00627307358167 604651.9263148146
187.00793217617428 604835.9919385535
188.00627307358167 605040.8605874819
189.00793217617428 605268.4283690953
190.00627307358167 605482.2726752477
191.00793217617428 605727.369275566
192.00627307358167 605943.4839097534
193.00793217617428 606189.3607303823
194.00627307358167 606419.1043441958
195.00793217617428 606658.2252681183
196.00627307358167 606882.040641545
197.00793217617428 605100.5335138245
198.00627307358167 605338.4940145755
199.00793217617428 605574.4114535679
200.00627307358167 605781.4476260892
201.00793217617428 605994.5047634768
202.00627307358167 606169.9625464682
203.00793217617428 606287.2044085274
204.00627307358167 606398.7070221625
205.00793217617428 606435.2467959125
206.00627307358167 606424.2303417382
207.00793217617428 606384.2720468539
208.00627307358167 606324.3501991403
209.00793217617428 606195.1592058921
210.00627307358167 606075.0756989293
211.00793217617428 605890.1583124079
212.00627307358167 605687.2011781548
213.00793217617428 605429.6295385609
214.00627307358167 605192.6650756836
215.00793217617428 604913.5060365985
216.00627307358167 604652.6547509395
217.00793217617428 604391.26648083
218.00627307358167 604159.8316857865
219.00793217617428 603922.4596796125
220.00627307358167 603744.821793989
221.00793217617428 603533.0100143242
222.00627307358167 603367.1660948554
223.00793217617428 603171.2517351867
224.00627307358167 603020.0786394714
225.00793217617428 602824.4024019525
226.00627307358167 602666.6215486685
227.00793217617428 602469.0431282017
228.00627307358167 602319.6357003435
229.00793217617428 604121.1797630094
230.00627307358167 604011.744990894
231.00793217617428 603878.677618419
232.00627307358167 603813.4159096945
233.00793217617428 603744.340703651
234.00627307358167 603747.5084723949
235.00793217617428 603746.0024688477
236.00627307358167 603798.6260840032
237.00793217617428 603869.9599892576
238.00627307358167 603967.3113048737
239.00793217617428 604066.4950042677
240.00627307358167 604192.0143152723
241.00793217617428 604303.667343778
242.00627307358167 604436.2079572127
243.00793217617428 604549.4415951222
244.00627307358167 604685.8928715425
245.00793217617428 604828.5419354975
246.00627307358167 604972.7272862549
247.00793217617428 605120.4806889908
248.00627307358167 605263.6362120478
249.00793217617428 605412.0021720814
250.00627307358167 605554.1355687545
251.00793217617428 605707.3314067894
252.00627307358167 605835.4334838554
253.00793217617428 605983.7540075106
254.00627307358167 606110.8713167012
255.00793217617428 606249.700056249
256.00627307358167 606365.2972549193
257.0079321761743 606483.9126351826
258.00627307358167 606586.2551597115
259.0079321761743 606670.2556170374
260.00627307358167 606751.0082391511
261.0079321761743 606812.1823873718
262.00627307358167 606859.0907022655
263.0079321761743 606921.2259625514
264.00627307358167 606927.7832348128
265.0079321761743 606943.1776975453
266.00627307358167 606917.1413598686
267.0079321761743 606882.6689283318
268.00627307358167 606790.1994294139
269.0079321761743 606701.0090601628
270.00627307358167 606569.6083325102
271.0079321761743 606421.1571493156
272.00627307358167 606230.9496903793
273.0079321761743 606061.4701642323
274.00627307358167 605857.6804088382
275.0079321761743 605651.8082455614
276.00627307358167 605450.5441332022
277.0079321761743 605244.7160311771
278.00627307358167 605042.6932842467
279.0079321761743 604822.5724173284
280.00627307358167 604636.7741173811
281.0079321761743 604446.3929291527
282.00627307358167 604285.8469920522
283.0079321761743 604116.64571812
284.00627307358167 603977.2939118217
285.0079321761743 603845.7908423875
286.00627307358167 603740.5770797146
287.0079321761743 603658.3513791573
288.00627307358167 603608.0246480977
289.0079321761743 603551.1898253653
290.00627307358167 603524.3497344971
291.0079321761743 603501.229268088
292.00627307358167 603510.5938464026
293.0079321761743 603508.5250616785
294.00627307358167 603524.5012801475
295.0079321761743 603546.5388721601
296.00627307358167 603570.1963883446
297.0079321761743 603587.6261744082
298.00627307358167 603629.39733304
299.0079321761743 603652.9792318667
300.00627307358167 603716.335623327
301.0079321761743 603756.6800695797
302.00627307358167 603843.6681450666
303.0079321761743 603907.4182303348
304.00627307358167 604016.3151680244
305.0079321761743 604119.7773639293
306.00627307358167 604264.0809748732
307.0079321761743 604412.8747672498
308.00627307358167 604594.7289154467
309.0079321761743 604781.7011480726
310.00627307358167 604977.8628068063
311.0079321761743 605190.1416548723
312.00627307358167 605398.8274997364
313.0079321761743 605617.1054074883
314.00627307358167 605849.5322642579
315.0079321761743 606082.3568875191
316.00627307358167 606301.178009056
317.0079321761743 606543.9947993556
318.00627307358167 606751.411109037
319.0079321761743 606975.3385324939
320.00627307358167 607143.3285015865
321.0079321761743 607327.5999396126
322.00627307358167 607465.486421221
323.0079321761743 607571.4655320441
324.00627307358167 607643.6242544542
325.0079321761743 607665.877310307
326.00627307358167 607637.3774449597
327.0079321761743 607619.3651252626
328.00627307358167 607558.3743045887
329.0079321761743 607436.9934505499
330.00627307358167 607295.8591576256
331.0079321761743 607095.2296750392
332.00627307358167 606896.1081362818
333.0079321761743 606677.6515930598
334.00627307358167 606466.6596765181
335.0079321761743 606232.1131334306
336.00627307358167 605976.8851143263
337.0079321761743 605782.1434641139
338.00627307358167 605610.7148740586
339.0079321761743 605399.1278739668
340.00627307358167 605249.7451674634
341.0079321761743 605066.161526032
342.00627307358167 604913.4860734303
343.0079321761743 604744.9062815829
344.00627307358167 604594.8790752615
345.0079321761743 604426.5034073481
346.00627307358167 604290.7121721549
347.0079321761743 604121.4340187082
348.00627307358167 603981.1367001834
349.0079321761743 603816.5510597696
350.00627307358167 603699.9862871695
351.0079321761743 603563.7077898149
352.00627307358167 603475.9719259978
353.0079321761743 597356.2220175924
354.00627307358167 597336.1564540508
355.0079321761743 597322.2343736895
356.00627307358167 597343.0817464344
357.0079321761743 597370.136191524
358.00627307358167 597438.4590315217
359.0079321761743 597501.0375942824
360.00627307358167 597614.7802909903
361.0079321761743 597705.1165774311
362.00627307358167 597821.5862338296
363.0079321761743 597925.8342613489
364.00627307358167 598055.4278564339
365.0079321761743 598176.0217428869
366.00627307358167 598310.6161872997
367.0079321761743 598473.4040400094
368.00627307358167 598580.7087480377
369.0079321761743 598743.1367564088
370.00627307358167 598901.5194021849
371.0079321761743 599068.61551015
372.00627307358167 599195.6867261315
373.0079321761743 599363.5339810274
374.00627307358167 599491.0011514825
375.0079321761743 599623.2181344437
376.00627307358167 599745.3095521792
377.0079321761743 599852.4072008047
378.00627307358167 599949.0233125038
379.0079321761743 600053.0593850838
380.00627307358167 600135.1035030226
381.0079321761743 600212.965010099
382.00627307358167 600269.3578123181
383.0079321761743 600329.8927072237
384.00627307358167 600357.7835903922
385.0079321761743 600400.6993192617
386.00627307358167 600398.4284762393
387.0079321761743 600359.6701771109
388.00627307358167 600313.4374704501
389.0079321761743 600221.3677043663
390.00627307358167 600112.6668564185
391.0079321761743 599955.2921183116
392.00627307358167 599800.1049131361
393.0079321761743 599600.8484759893
394.00627307358167 599408.9893359061
395.0079321761743 599192.1606424471
396.00627307358167 598990.7170523882
397.0079321761743 598761.4482102597
398.00627307358167 598560.1981621834
399.0079321761743 598331.3125512121
400.00627307358167 598127.7642032086
401.0079321761743 597898.175224743
402.00627307358167 597698.1271171703
403.0079321761743 597468.1778712106
404.00627307358167 597273.2083580686
405.0079321761743 597051.8891359976
406.00627307358167 596864.3951301806
407.0079321761743 596647.2587874354
408.00627307358167 596480.5510771095
409.0079321761743 596283.585653302
410.00627307358167 596169.9346412339
411.0079321761743 596022.2756566266
412.00627307358167 595937.7132077286
413.0079321761743 595848.4077131723
414.00627307358167 595830.0512891994
415.0079321761743 595812.2682902007
416.00627307358167 595853.36041677
417.0079321761743 595864.0265728106
418.00627307358167 595940.2298278566
419.0079321761743 596013.6015350283
420.00627307358167 596144.703786988
421.0079321761743 596262.7834343084
422.00627307358167 596414.697102977
423.0079321761743 596570.8903739211
424.00627307358167 596760.0769295285
425.0079321761743 596925.6660459966
426.00627307358167 597119.5768346044
427.0079321761743 597292.8407931426
428.00627307358167 597477.2701053498
429.0079321761743 597653.9113153949
430.00627307358167 597819.8871450663
431.0079321761743 597999.6562908327
432.00627307358167 598173.7560069464
433.0079321761743 598307.2179437984
434.00627307358167 598472.6469955456
435.0079321761743 598618.9411992028
436.00627307358167 598746.853101714
437.0079321761743 598864.1688000837
438.00627307358167 598973.5809547835
439.0079321761743 599056.2529453309
440.00627307358167 599099.688317387
441.0079321761743 599129.3898870702
442.00627307358167 599110.7344209359
443.0079321761743 599105.8949683751
444.00627307358167 599053.2232100505
445.0079321761743 598990.4925989684
446.00627307358167 598905.7373374194
447.0079321761743 598809.5670499733
448.00627307358167 598689.823035648
449.0079321761743 598578.3120605133
450.00627307358167 598431.4020295711
451.0079321761743 598290.9547108776
452.00627307358167 598122.1223814113
453.0079321761743 597976.3345738614
454.00627307358167 597801.152548247
455.0079321761743 597650.490943073
456.00627307358167 597478.0742208532
457.0079321761743 597311.3755624987
458.00627307358167 597181.3901251376
459.0079321761743 597020.2965961122
460.00627307358167 596867.2169142723
461.0079321761743 596707.7930040585
462.00627307358167 596540.0254905348
463.0079321761743 596377.6238781124
464.00627307358167 596217.0906269472
465.0079321761743 596036.6727763697
466.00627307358167 595861.9103368525
467.0079321761743 595665.2836322427
468.00627307358167 595517.8815804793
469.0079321761743 595350.5018278225
470.00627307358167 595242.9527870452
471.0079321761743 595110.4466895899
472.00627307358167 595019.2715735459
473.0079321761743 594947.1673774549
474.00627307358167 594916.1596495819
475.0079321761743 594889.0606363551
476.00627307358167 594878.0328055096
477.0079321761743 594872.6296795541
478.00627307358167 594893.2195894669
479.0079321761743 594883.8107690512
480.00627307358167 594908.9383623603
481.0079321761743 594900.3768906837
482.00627307358167 594931.1932432194
483.0079321761743 594940.7446383141
484.00627307358167 594969.3705651673
485.0079321761743 594989.0194780615
486.00627307358167 595012.0218280158
487.0079321761743 595052.395171692
488.00627307358167 595079.7748893143
489.0079321761743 595079.1634237771
490.00627307358167 595100.1789848031
491.0079321761743 595116.9143780728
492.00627307358167 595147.1192521227
493.0079321761743 595197.5719851207
494.00627307358167 595248.1617337331
495.0079321761743 595279.1819919761
496.00627307358167 595329.3070637276
497.0079321761743 595340.2710594692
498.00627307358167 595381.8584237729
499.0079321761743 595406.012117628
500.00627307358167 595430.6496709686
501.0079321761743 595434.4533759829
502.00627307358167 595463.3236720739
503.0079321761743 595469.1630641215
504.00627307358167 595494.583829527
505.0079321761743 595507.1843086687
506.00627307358167 595533.5525711192
507.0079321761743 595557.833635182
508.00627307358167 595580.5303568753
509.0079321761743 595578.7738688051
510.00627307358167 595598.0310740385
511.0079321761743 595604.599713901
512.0062730735817 595615.4207993897
513.0079321761743 595629.6047331513
514.0062730735817 595630.2122471506
515.0079321761743 595653.9314165665
516.0062730735817 595647.7750268042
517.0079321761743 595657.0859299889
518.0062730735817 595699.7441453967
519.0079321761743 595706.4697226873
520.0062730735817 595722.9671517399
521.0079321761743 595750.9124834178
522.0062730735817 595771.3913562795
523.0079321761743 595799.0952427805
524.0062730735817 595816.956157184
525.0079321761743 595835.0130222706
526.0062730735817 595841.0216703222
527.0079321761743 595852.0398392319
528.0062730735817 595840.5887345535
529.0079321761743 595840.0254692957
530.0062730735817 595819.506170209
531.0079321761743 595826.4427519521
532.0062730735817 595780.7228890208
533.0079321761743 595737.9179571924
534.0062730735817 595702.3684473522
535.0079321761743 595686.1882553424
536.0062730735817 595642.1815853032
537.0079321761743 595621.2557694528
538.0062730735817 595568.221463917
539.0079321761743 595555.4389484538
540.0062730735817 595513.0094202743
