#####################################################################
# Alchemist log file - simulation started at: 2024-05-07T00:02+0000 #
#####################################################################
#
# seed = 8.0, nodeCount = 200, surrogateFrequency = 1, scenario = offloaded
#
# The columns have the following meaning: 
# time potential[sum] 
0.0 0.0
0.002460879113086012 0.0
1.0079113694618855 0.0
2.002460879113086 7565.970809399944
3.0079113694618855 11269.992523312916
4.002460879113086 14730.005943577933
5.007911369461885 54774.47576599118
6.002460879113086 98921.99197134873
7.007911369461885 221680.18362040576
8.002460879113086 486438.686266649
9.007911369461885 699339.4788600277
10.002460879113086 862414.9739984877
11.007911369461885 962934.7140950944
12.002460879113086 1063854.391770396
13.007911369461885 1179196.2927456317
14.002460879113086 1223896.4747743378
15.007911369461885 1227377.0561022619
16.002460879113087 1225226.6002911502
17.007911369461887 1224420.854037674
18.002460879113087 1244949.329690047
19.007911369461887 1244930.1802643042
20.002460879113087 1244819.0302410037
21.007911369461887 1244822.28120479
22.002460879113087 1244821.4631297386
23.007911369461887 1244825.6783557262
24.002460879113087 1244828.5235090374
25.007911369461887 1244846.4743523465
26.002460879113087 1244853.5061491174
27.007911369461887 1244875.3880982639
28.002460879113087 1244877.6713936846
29.007911369461887 1244907.1937977918
30.002460879113087 1244907.871203429
31.007911369461887 1244933.249942928
32.00246087911309 1244934.4081050768
33.00791136946189 1244958.1541800753
34.00246087911309 1244959.4504956028
35.00791136946189 1244986.983309277
36.00246087911309 1244985.291346144
37.00791136946189 1245008.248286711
38.00246087911309 1245007.9353848326
39.00791136946189 1245023.9949698956
40.00246087911309 1245019.6139771212
41.00791136946189 1245046.0379941121
42.00246087911309 1245038.196936893
43.00791136946189 1245057.8774295435
44.00246087911309 1245055.6721113743
45.00791136946189 1245077.1996562562
46.00246087911309 1245070.582488675
47.00791136946189 1245099.1798930373
48.00246087911309 1245092.9619525715
49.00791136946189 1245123.8720434327
50.00246087911309 1245118.283955659
51.00791136946189 1245148.9244532057
52.00246087911309 1245141.9775248584
53.00791136946189 1245176.521549917
54.00246087911309 1244579.8617202078
55.00791136946189 1244615.4995403585
56.00246087911309 1244604.6919462606
57.00791136946189 1242189.0768944498
58.00246087911309 1242130.381683989
59.00791136946189 1242125.5116656818
60.00246087911309 1242114.6531466062
61.00791136946189 1242035.6415611475
62.00246087911309 1242037.898448509
63.00791136946189 1242035.4951926013
64.00246087911309 1242049.7120878885
65.00791136946188 1242059.463449165
66.00246087911309 1242054.8151248142
67.00791136946188 1242063.2115997951
68.00246087911309 1242072.1321876105
69.00791136946188 1242078.82046296
70.00246087911309 1242071.2217890033
71.00791136946188 1242105.0662269592
72.00246087911309 1242113.8784945547
73.00791136946188 1242068.3440659416
74.00246087911309 1242059.0795700897
75.00791136946188 1242061.909626945
76.00246087911309 1242069.2962472134
77.00791136946188 1242035.6352974265
78.00246087911309 1242050.8176849156
79.00791136946188 1241978.1698721612
80.00246087911309 1241978.3829201069
81.00791136946188 1241981.99772546
82.00246087911309 1241995.5073369825
83.00791136946188 1242043.9156666452
84.00246087911309 1242064.4825290511
85.00791136946188 1242084.3574503465
86.00246087911309 1242105.702708405
87.00791136946188 1242129.386047905
88.00246087911309 1242136.1021840114
89.00791136946188 1242144.904186922
90.00246087911309 1242150.0147816737
91.00791136946188 1242113.4517666644
92.00246087911309 1242108.3325087598
93.00791136946188 1242118.1458820226
94.00246087911309 1242133.3350116545
95.00791136946188 1242131.8679171465
96.00246087911309 1242144.6099897814
97.00791136946188 1242139.793934595
98.00246087911309 1242147.0236987763
99.00791136946188 1242151.35383342
100.00246087911309 1242142.744546888
101.00791136946188 1242175.7422740753
102.00246087911309 1242182.158412454
103.00791136946188 1242187.8465619828
104.00246087911309 1242190.1627825587
105.00791136946188 1242204.1080512262
106.00246087911309 1242205.3845292537
107.00791136946188 1242214.5225111686
108.00246087911309 1242223.3118777485
109.00791136946188 1242220.768308427
110.00246087911309 1242231.577638808
111.00791136946188 1242239.500501761
112.00246087911309 1242250.2299851333
113.00791136946188 1242264.1001098296
114.00246087911309 1242299.8597930241
115.00791136946188 1242328.3733484296
116.00246087911309 1242411.6541665916
117.00791136946188 1242461.368758214
118.00246087911309 1242592.7608120241
119.00791136946188 1242686.4687825076
120.00246087911309 1242864.4314912686
121.00791136946188 1243023.5939983877
122.00246087911309 1243237.0897809546
123.00791136946188 1243456.5481096567
124.00246087911309 1243725.8707310737
125.00791136946188 1243959.807682482
126.00246087911309 1244261.0220957852
127.00791136946188 1244536.0593413473
128.00246087911307 1244844.5302455623
129.00791136946188 1245129.4989560214
130.00246087911307 1245461.6720376466
131.00791136946188 1245743.0645047696
132.00246087911307 1246079.6389990966
133.00791136946188 1246376.5006938246
134.00246087911307 1246702.855374251
135.00791136946188 1246989.531894756
136.00246087911307 1247316.4559780878
137.00791136946188 1247540.252473644
138.00246087911307 1247825.7238107678
139.00791136946188 1248077.7949113566
140.00246087911307 1248326.9386283949
141.00791136946188 1248536.1972493192
142.00246087911307 1248754.1483704895
143.00791136946188 1248921.9202124272
144.00246087911307 1249074.9938070728
145.00791136946188 1249183.8078090008
146.00246087911307 1249247.3069590498
147.00791136946188 1249258.4565828638
148.00246087911307 1249199.6376125827
149.00791136946188 1249098.539369871
150.00246087911307 1248891.2741539117
151.00791136946188 1248699.3333784426
152.00246087911307 1248381.6644392968
153.00791136946188 1248065.512803917
154.00246087911307 1247697.5952059894
155.00791136946188 1247343.4392182932
156.00246087911307 1246920.0355314831
157.00791136946188 1246547.8905612456
158.00246087911307 1246108.814387867
159.00791136946188 1245785.610096072
160.00246087911307 1245355.659965447
161.00791136946188 1245008.9611549107
162.00246087911307 1244572.1948547827
163.00791136946188 1244257.0924808613
164.00246087911307 1243877.2927053724
165.00791136946188 1243588.5689166735
166.00246087911307 1243300.8855793022
167.00791136946188 1243094.495676357
168.00246087911307 1242909.3173729214
169.00791136946188 1242714.3829119331
170.00246087911307 1242560.6262199883
171.00791136946188 1242583.2811335844
172.00246087911307 1242462.009916823
173.00791136946188 1242398.3892446863
174.00246087911307 1242363.5211376124
175.00791136946188 1242401.896453874
176.00246087911307 1242438.5505312071
177.00791136946188 1242461.0652672471
178.00246087911307 1242522.936267067
179.00791136946188 1242575.4833248057
180.00246087911307 1242671.9372338098
181.00791136946188 1242771.0814427207
182.00246087911307 1242888.7175303248
183.00791136946188 1243024.0768208764
184.00246087911307 1243169.6521372672
185.00791136946188 1243337.4885347215
186.00246087911307 1243535.6533708186
187.00791136946188 1243742.3061443656
188.00246087911307 1244005.3040393367
189.00791136946188 1244253.711469493
190.00246087911307 1244540.8733620802
191.00791136946188 1244827.4599591156
192.00246087911307 1245161.7131514796
193.00791136946188 1245483.1556543186
194.00246087911307 1245866.301131012
195.00791136946188 1246220.3932893155
196.00246087911307 1246697.539841598
197.00791136946188 1245927.4073475557
198.00246087911307 1246461.7967363233
199.00791136946188 1246869.0093332897
200.00246087911307 1247435.5764600667
201.00791136946188 1247855.4547502901
202.00246087911307 1248396.5359992746
203.00791136946188 1248895.2711295327
204.00246087911307 1249335.9091174984
205.00791136946188 1249787.6985251496
206.00246087911307 1250191.0587374815
207.00791136946188 1250546.1277112407
208.00246087911307 1250756.9299611782
209.00791136946188 1250964.2610353052
210.00246087911307 1250952.0537487841
211.00791136946188 1250950.1354860563
212.00246087911307 1250721.1251993366
213.00791136946188 1250576.0382971566
214.00246087911307 1250128.7575176605
215.00791136946188 1249756.593954035
216.00246087911307 1249223.0944723738
217.00791136946188 1248800.017253876
218.00246087911307 1248323.2056095873
219.00791136946188 1247889.985268984
220.00246087911307 1247462.915893405
221.00791136946188 1247131.3363046877
222.00246087911307 1246689.3311189797
223.00791136946188 1246419.3274494247
224.00246087911307 1246007.637240279
225.00791136946188 1245722.2122343502
226.00246087911307 1245314.5261777309
227.00791136946188 1245018.7371106357
228.00246087911307 1244633.7440442615
229.00791136946188 1245338.3234852224
230.00246087911307 1245008.2813147022
231.00791136946188 1244686.9482083188
232.00246087911307 1244391.435942067
233.00791136946188 1244253.151858841
234.00246087911307 1244105.4153517438
235.00791136946188 1244023.5316756275
236.00246087911307 1244018.5715826126
237.00791136946188 1244097.7917147733
238.00246087911307 1244183.9331649297
239.00791136946188 1244323.6745759656
240.00246087911307 1244476.7883980048
241.00791136946188 1244707.1479338552
242.00246087911307 1244875.49499829
243.00791136946188 1245111.1969718395
244.00246087911307 1245327.416355522
245.00791136946188 1245568.1820916028
246.00246087911307 1245829.0221851293
247.00791136946188 1246069.417286548
248.00246087911307 1246345.002555619
249.00791136946188 1246588.0036987355
250.00246087911307 1246883.9975133038
251.00791136946188 1247138.368345528
252.00246087911307 1247423.8934586912
253.00791136946188 1247693.3909354673
254.00246087911307 1247989.6182870378
255.00791136946188 1248247.0059483664
256.0024608791131 1248546.7444557475
257.0079113694619 1248810.2574735791
258.0024608791131 1249102.1067721166
259.0079113694619 1249378.5922738118
260.0024608791131 1249645.6021931043
261.0079113694619 1249880.4207640826
262.0024608791131 1250103.1633736305
263.0079113694619 1250314.362687281
264.0024608791131 1250504.0819526727
265.0079113694619 1250634.1208290264
266.0024608791131 1250750.5817939423
267.0079113694619 1250806.7719174311
268.0024608791131 1250819.6550322783
269.0079113694619 1250802.3864014647
270.0024608791131 1250693.5998863785
271.0079113694619 1250553.029452325
272.0024608791131 1250307.5227939184
273.0079113694619 1250041.1297231829
274.0024608791131 1249688.894475134
275.0079113694619 1249318.0327272643
276.0024608791131 1248919.5914987968
277.0079113694619 1248515.3415280066
278.0024608791131 1248066.133076268
279.0079113694619 1247662.934075582
280.0024608791131 1247206.7711831033
281.0079113694619 1246811.151319398
282.0024608791131 1246358.367664647
283.0079113694619 1245975.1113695551
284.0024608791131 1245566.7203029806
285.0079113694619 1245210.6941658205
286.0024608791131 1244862.928535998
287.0079113694619 1244610.668385962
288.0024608791131 1244356.509342345
289.0079113694619 1244156.9037800075
290.0024608791131 1244049.4438734418
291.0079113694619 1243968.616651382
292.0024608791131 1243943.103155893
293.0079113694619 1243960.4710668817
294.0024608791131 1243979.663662056
295.0079113694619 1244015.7737264794
296.0024608791131 1244077.8067277633
297.0079113694619 1244115.9279623197
298.0024608791131 1244196.7232422126
299.0079113694619 1244247.911387453
300.0024608791131 1244324.764831116
301.0079113694619 1244395.9974305136
302.0024608791131 1244504.1495080332
303.0079113694619 1244597.6017700192
304.0024608791131 1244732.0853964877
305.0079113694619 1244872.8014982233
306.0024608791131 1245040.8291471552
307.0079113694619 1245212.0733825257
308.0024608791131 1245438.8613998415
309.0079113694619 1245657.978398041
310.0024608791131 1245914.1229784982
311.0079113694619 1246190.3644973945
312.0024608791131 1246542.811206404
313.0079113694619 1246859.89640836
314.0024608791131 1247226.174738069
315.0079113694619 1247588.724312607
316.0024608791131 1247997.9747499165
317.0079113694619 1248379.9401705028
318.0024608791131 1248796.3329097822
319.0079113694619 1249196.7529247254
320.0024608791131 1249626.594014529
321.0079113694619 1250004.8304381906
322.0024608791131 1250432.5368634912
323.0079113694619 1250783.4150698893
324.0024608791131 1251164.6521349128
325.0079113694619 1251472.8774949515
326.0024608791131 1251766.8480232984
327.0079113694619 1252005.509664607
328.0024608791131 1252146.577886634
329.0079113694619 1252194.462189426
330.0024608791131 1252102.6574152675
331.0079113694619 1251985.8659955163
332.0024608791131 1251682.6762011359
333.0079113694619 1251389.7552020198
334.0024608791131 1250952.606199265
335.0079113694619 1250550.2734613735
336.0024608791131 1250079.4888795875
337.0079113694619 1249634.1553744567
338.0024608791131 1249235.486392142
339.0079113694619 1248932.278299238
340.0024608791131 1248530.0456503145
341.0079113694619 1248198.2565274502
342.0024608791131 1247840.9769625762
343.0079113694619 1247497.135447932
344.0024608791131 1247160.7127026357
345.0079113694619 1246869.6956221543
346.0024608791131 1246542.6120586088
347.0079113694619 1246271.6913387005
348.0024608791131 1245918.7072134686
349.0079113694619 1245652.8540882175
350.0024608791131 1245323.6467717164
351.0079113694619 1245071.1846476498
352.0024608791131 1244774.3954678343
353.0079113694619 1244622.6730214327
354.0024608791131 1244434.2810107586
355.0079113694619 1244326.2960962374
356.0024608791131 1244274.6912778832
357.0079113694619 1244259.2298433275
358.0024608791131 1244319.4054529155
359.0079113694619 1244402.1913621211
360.0024608791131 1244513.8191061094
361.0079113694619 1244662.7289592386
362.0024608791131 1244851.804475396
363.0079113694619 1245015.1740985923
364.0024608791131 1245675.6053321348
365.0079113694619 1245877.6404392668
366.0024608791131 1246125.7577421342
367.0079113694619 1246789.3415408155
368.0024608791131 1247060.704580119
369.0079113694619 1247302.808091764
370.0024608791131 1247627.2677733821
371.0079113694619 1248143.5209246085
372.0024608791131 1248456.8161251189
373.0079113694619 1248617.6663932377
374.0024608791131 1248931.957151996
375.0079113694619 1248231.4769490508
376.0024608791131 1247769.9522597818
377.0079113694619 1247969.2313133068
378.0024608791131 1248220.6509579315
379.0079113694619 1248245.9154030199
380.0024608791131 1248588.5039574564
381.0079113694619 1248836.1278778247
382.0024608791131 1249050.9689950543
383.0079113694619 1249351.2386932806
384.0024608791131 1249506.9925884805
385.0079113694619 1249748.8460499945
386.0024608791131 1249917.4504803836
387.0079113694619 1250055.4048024253
388.0024608791131 1250077.3981922967
389.0079113694619 1250159.3463808035
390.0024608791131 1250089.3075626562
391.0079113694619 1249980.052697012
392.0024608791131 1249766.6542832039
393.0079113694619 1249561.1573958192
394.0024608791131 1249246.3370924408
395.0079113694619 1248920.8161927026
396.0024608791131 1248563.7874233506
397.0079113694619 1248166.6010398131
398.0024608791131 1247761.6725730388
399.0079113694619 1247349.3177028056
400.0024608791131 1246932.6400515728
401.0079113694619 1246517.759388099
402.0024608791131 1246099.27405214
403.0079113694619 1245692.3169086694
404.0024608791131 1245287.263359945
405.0079113694619 1244877.5391912234
406.0024608791131 1244482.8675652011
407.0079113694619 1244097.859888976
408.0024608791131 1243719.3194457863
409.0079113694619 1243352.611149142
410.0024608791131 1243035.2172343775
411.0079113694619 1242724.2177609417
412.0024608791131 1242466.4898490307
413.0079113694619 1242249.40435158
414.0024608791131 1242110.3859302066
415.0079113694619 1241982.4758123793
416.0024608791131 1241949.9765342122
417.0079113694619 1241940.0917048962
418.0024608791131 1242001.6273721007
419.0079113694619 1242032.755729909
420.0024608791131 1242161.1994064134
421.0079113694619 1242295.2565288218
422.0024608791131 1242502.9848848018
423.0079113694619 1242671.2518967835
424.0024608791131 1242947.342120684
425.0079113694619 1243200.6698573278
426.0024608791131 1243497.6122654025
427.0079113694619 1243786.7648042603
428.0024608791131 1244157.5125155486
429.0079113694619 1244472.9316009327
430.0024608791131 1244838.5578193918
431.0079113694619 1245167.3546437195
432.0024608791131 1245559.1547970565
433.0079113694619 1245889.1177693359
434.0024608791131 1246270.1601335378
435.0079113694619 1246605.3616932621
436.0024608791131 1246980.5399659604
437.0079113694619 1247278.9653176558
438.0024608791131 1247642.1931717051
439.0079113694619 1247908.7742098882
440.0024608791131 1248200.3899530645
441.0079113694619 1248432.7098836438
442.0024608791131 1248655.2384709846
443.0079113694619 1248812.648317306
444.0024608791131 1248918.693944926
445.0079113694619 1248982.8244136728
446.0024608791131 1248989.8152506985
447.0079113694619 1248968.087837797
448.0024608791131 1248847.1968795722
449.0079113694619 1248785.7307982657
450.0024608791131 1248648.9856435747
451.0079113694619 1248448.8165398103
452.0024608791131 1248194.2285582633
453.0079113694619 1247914.8194411548
454.0024608791131 1247582.2091240315
455.0079113694619 1247310.2446443685
456.0024608791131 1246967.9553218363
457.0079113694619 1246670.5169272267
458.0024608791131 1246342.8828766744
459.0079113694619 1246038.630318117
460.0024608791131 1245701.8566673514
461.0079113694619 1245412.6916621823
462.0024608791131 1245060.143574521
463.0079113694619 1244756.0277960894
464.0024608791131 1244412.2396204548
465.0079113694619 1244105.4145932517
466.0024608791131 1243743.8424398042
467.0079113694619 1243450.2652296177
468.0024608791131 1243109.426033174
469.0079113694619 1242803.646214154
470.0024608791131 1242494.5011412825
471.0079113694619 1242252.8960208273
472.0024608791131 1242029.1025948199
473.0079113694619 1241867.8374568513
474.0024608791131 1241753.7684520339
475.0079113694619 1241646.3145173495
476.0024608791131 1241598.947575177
477.0079113694619 1241570.7033257275
478.0024608791131 1241553.8735295723
479.0079113694619 1241562.092983659
480.0024608791131 1241580.3864474713
481.0079113694619 1241599.3717319411
482.0024608791131 1241636.9863768765
483.0079113694619 1241653.3753957665
484.0024608791131 1241693.3431537116
485.0079113694619 1241717.8838668372
486.0024608791131 1241774.890159129
487.0079113694619 1241796.2737504612
488.0024608791131 1241861.8075668588
489.0079113694619 1241894.1630358952
490.0024608791131 1241956.831571998
491.0079113694619 1242001.5671177534
492.0024608791131 1242052.7757286467
493.0079113694619 1242221.8559249549
494.0024608791131 1242275.868056862
495.0079113694619 1242691.4854916139
496.0024608791131 1242878.4695127138
497.0079113694619 1242977.645753984
498.0024608791131 1243124.292666311
499.0079113694619 1243326.1379897855
500.0024608791131 1243398.7590577223
501.0079113694619 1243632.4772485355
502.0024608791131 1243736.0988823066
503.0079113694619 1243817.6610575365
504.0024608791131 1243959.088616863
505.0079113694619 1244085.8544253984
506.0024608791131 1244158.5581689905
507.0079113694619 1244276.5361669725
508.0024608791131 1244372.0715714144
509.0079113694619 1244437.2705392563
510.0024608791131 1244531.4981152902
511.0079113694619 1244617.37032646
512.0024608791131 1244691.2766264926
513.0079113694619 1244708.6846305446
514.0024608791131 1244759.89900629
515.0079113694619 1244807.1861775848
516.0024608791131 1244833.6078265891
517.0079113694619 1244867.640221556
518.0024608791131 1244897.3698612528
519.0079113694619 1244951.7260337963
520.0024608791131 1245046.4903908717
521.0079113694619 1245084.1072868474
522.0024608791131 1245170.9604143682
523.0079113694619 1245231.6487631614
524.0024608791131 1245321.9583350257
525.0079113694619 1245368.789138803
526.0024608791131 1245422.1237203388
527.0079113694619 1245464.460164338
528.0024608791131 1245508.646866351
529.0079113694619 1245534.3109290116
